        Time   Palpation Force
      0.0000         1.00
      0.0010         1.00
      0.0020         1.00
      0.0030         1.15
      0.0040         2.06
      0.0050         2.52
      0.0060         2.97
      0.0070         4.46
      0.0080         4.99
      0.0090         5.53
      0.0100         6.09
      0.0110         6.54
      0.0120         7.01
      0.0130         7.55
      0.0140         8.03
      0.0150         8.56
      0.0160         9.05
      0.0170         9.58
      0.0180        10.08
      0.0190        10.60
      0.0200        10.64
      0.0210        10.68
      0.0220        10.52
      0.0230        10.44
      0.0240        10.43
      0.0250        10.42
      0.0260        10.38
      0.0270        10.30
      0.0280        10.24
      0.0290        10.26
      0.0300        10.19
      0.0310        10.30
      0.0320        10.35
      0.0330        10.33
      0.0340        10.35
      0.0350        10.30
      0.0360        10.38
      0.0370        10.35
      0.0380        10.36
      0.0390        10.32
      0.0400        10.39
      0.0410        10.28
      0.0420        10.40
      0.0430        10.33
      0.0440        10.39
      0.0450        10.35
      0.0460        10.24
      0.0470        10.19
      0.0480        10.19
      0.0490        10.12
      0.0500        10.09
      0.0510        10.00
      0.0520         9.97
      0.0530         9.96
      0.0540         9.96
      0.0550         9.93
      0.0560         9.88
      0.0570         9.92
      0.0580         9.87
      0.0590         9.88
      0.0600         9.77
      0.0610         9.78
      0.0620         9.77
      0.0630         9.78
      0.0640         9.76
      0.0650         9.82
      0.0660         9.89
      0.0670         9.88
      0.0680         9.97
      0.0690        10.02
      0.0700        10.06
      0.0710        10.08
      0.0720        10.09
      0.0730        10.04
      0.0740        10.02
      0.0750        10.10
      0.0760        10.04
      0.0770        10.01
      0.0780        10.10
      0.0790        10.09
      0.0800        10.05
      0.0810        10.16
      0.0820        10.16
      0.0830        10.19
      0.0840        10.18
      0.0850        10.14
      0.0860        10.18
      0.0870        10.18
      0.0880        10.07
      0.0890         9.53
      0.0900        10.03
      0.0910        10.04
      0.0920        10.02
      0.0930        10.10
      0.0940        10.15
      0.0950        10.10
      0.0960        10.11
      0.0970        10.01
      0.0980         9.90
      0.0990         9.90
      0.1000         9.94
      0.1010         9.83
      0.1020         9.86
      0.1030         9.86
      0.1040         9.85
      0.1050         9.83
      0.1060         9.93
      0.1070         9.91
      0.1080         9.96
      0.1090         9.94
      0.1100         9.93
      0.1110         9.92
      0.1120        10.08
      0.1130        10.05
      0.1140         9.97
      0.1150        10.01
      0.1160        10.09
      0.1170        10.25
      0.1180        10.39
      0.1190        10.35
      0.1200        10.42
      0.1210        10.40
      0.1220        10.38
      0.1230        10.30
      0.1240        10.35
      0.1250        10.30
      0.1260        10.21
      0.1270        10.27
      0.1280        10.17
      0.1290        10.27
      0.1300        10.30
      0.1310        10.32
      0.1320        10.30
      0.1330        10.31
      0.1340        10.32
      0.1350        10.21
      0.1360        10.15
      0.1370        10.02
      0.1380         9.94
      0.1390        10.07
      0.1400         9.96
      0.1410         9.95
      0.1420         9.95
      0.1430        10.09
      0.1440         9.99
      0.1450         9.99
      0.1460         9.95
      0.1470        10.03
      0.1480        10.03
      0.1490        10.02
      0.1500         9.98
      0.1510         9.98
      0.1520         9.87
      0.1530         9.84
      0.1540         9.79
      0.1550         9.85
      0.1560         9.92
      0.1570         9.93
      0.1580         9.88
      0.1590         9.84
      0.1600         9.96
      0.1610        10.08
      0.1620        10.05
      0.1630         9.96
      0.1640         9.97
      0.1650        10.00
      0.1660         9.99
      0.1670         9.83
      0.1680         9.92
      0.1690         9.93
      0.1700         9.82
      0.1710         9.71
      0.1720         9.68
      0.1730         9.65
      0.1740         9.73
      0.1750         9.77
      0.1760         9.68
      0.1770         9.71
      0.1780         9.83
      0.1790         9.84
      0.1800         9.78
      0.1810         9.66
      0.1820         9.73
      0.1830         9.78
      0.1840         9.82
      0.1850         9.88
      0.1860         9.84
      0.1870         9.91
      0.1880         9.90
      0.1890         9.86
      0.1900         9.95
      0.1910        10.05
      0.1920        10.04
      0.1930        10.13
      0.1940        10.14
      0.1950        10.05
      0.1960        10.02
      0.1970         9.94
      0.1980         9.83
      0.1990         9.74
      0.2000         9.69
      0.2010         9.74
      0.2020         9.70
      0.2030         9.65
      0.2040         9.59
      0.2050         9.59
      0.2060         9.65
      0.2070         9.71
      0.2080         9.72
      0.2090         9.72
      0.2100         9.82
      0.2110         9.84
      0.2120         9.91
      0.2130         9.95
      0.2140         9.89
      0.2150         9.97
      0.2160        10.02
      0.2170        10.08
      0.2180        10.08
      0.2190        10.09
      0.2200        10.14
      0.2210        10.02
      0.2220         9.94
      0.2230        10.01
      0.2240         9.98
      0.2250         9.90
      0.2260         9.82
      0.2270         9.71
      0.2280         9.66
      0.2290         9.56
      0.2300         9.51
      0.2310         9.57
      0.2320         9.47
      0.2330         9.37
      0.2340         9.41
      0.2350         9.31
      0.2360         9.34
      0.2370         9.32
      0.2380         9.37
      0.2390         9.43
      0.2400         9.39
      0.2410         9.47
      0.2420         9.49
      0.2430         9.47
      0.2440         9.46
      0.2450         9.51
      0.2460         9.55
      0.2470         9.70
      0.2480         9.78
      0.2490         9.81
      0.2500         9.81
      0.2510         9.71
      0.2520         9.77
      0.2530         9.74
      0.2540         9.70
      0.2550         9.77
      0.2560         9.76
      0.2570         9.78
      0.2580         9.69
      0.2590         9.61
      0.2600         9.64
      0.2610         9.66
      0.2620         9.65
      0.2630         9.60
      0.2640         9.65
      0.2650         9.70
      0.2660         9.60
      0.2670         9.50
      0.2680         9.46
      0.2690         9.50
      0.2700         9.51
      0.2710         9.58
      0.2720         9.56
      0.2730         9.71
      0.2740         9.72
      0.2750         9.69
      0.2760         9.76
      0.2770         9.78
      0.2780         9.88
      0.2790         9.92
      0.2800         9.91
      0.2810         9.78
      0.2820         9.86
      0.2830         9.86
      0.2840         9.90
      0.2850         9.92
      0.2860         9.98
      0.2870         9.98
      0.2880        10.02
      0.2890         9.95
      0.2900         9.87
      0.2910         9.85
      0.2920         9.82
      0.2930         9.65
      0.2940         9.69
      0.2950         9.74
      0.2960         9.71
      0.2970         9.70
      0.2980         9.65
      0.2990         9.69
      0.3000         9.69
      0.3010         9.83
      0.3020         9.78
      0.3030         9.80
      0.3040         9.68
      0.3050         9.51
      0.3060         9.59
      0.3070         9.62
      0.3080         9.52
      0.3090         9.57
      0.3100         9.59
      0.3110         9.55
      0.3120         9.53
      0.3130         9.61
      0.3140         9.59
      0.3150         9.51
      0.3160         9.46
      0.3170         9.48
      0.3180         9.55
      0.3190         9.46
      0.3200         9.55
      0.3210         9.49
      0.3220         9.46
      0.3230         9.46
      0.3240         9.55
      0.3250         9.68
      0.3260         9.62
      0.3270         9.60
      0.3280         9.70
      0.3290         9.76
      0.3300         9.72
      0.3310         9.74
      0.3320         9.76
      0.3330         9.73
      0.3340         9.69
      0.3350         9.75
      0.3360         9.83
      0.3370         9.74
      0.3380         9.66
      0.3390         9.75
      0.3400         9.68
      0.3410         9.66
      0.3420         9.71
      0.3430         9.71
      0.3440         9.78
      0.3450         9.70
      0.3460         9.73
      0.3470         9.75
      0.3480         9.65
      0.3490         9.54
      0.3500         9.67
      0.3510         9.74
      0.3520         9.73
      0.3530         9.76
      0.3540         9.74
      0.3550         9.66
      0.3560         9.60
      0.3570         9.66
      0.3580         9.80
      0.3590         9.77
      0.3600         9.66
      0.3610         9.65
      0.3620         9.64
      0.3630         9.70
      0.3640         9.68
      0.3650         9.72
      0.3660         9.65
      0.3670         9.62
      0.3680         9.67
      0.3690         9.66
      0.3700         9.58
      0.3710         9.53
      0.3720         9.61
      0.3730         9.61
      0.3740         9.64
      0.3750         9.72
      0.3760         9.64
      0.3770         9.61
      0.3780         9.53
      0.3790         9.48
      0.3800         9.61
      0.3810         9.58
      0.3820         9.65
      0.3830         9.57
      0.3840         9.46
      0.3850         9.46
      0.3860         9.53
      0.3870         9.50
      0.3880         9.57
      0.3890         9.70
      0.3900         9.70
      0.3910         9.75
      0.3920         9.83
      0.3930         9.86
      0.3940         9.93
      0.3950         9.94
      0.3960        10.06
      0.3970        10.09
      0.3980        10.10
      0.3990        10.25
      0.4000        10.14
      0.4010        10.26
      0.4020        10.20
      0.4030        10.22
      0.4040        10.31
      0.4050        10.29
      0.4060        10.31
      0.4070        10.31
      0.4080        10.21
      0.4090        10.20
      0.4100        10.21
      0.4110        10.08
      0.4120         9.96
      0.4130         9.83
      0.4140         9.76
      0.4150         9.80
      0.4160         9.84
      0.4170         9.90
      0.4180         9.87
      0.4190         9.76
      0.4200         9.87
      0.4210         9.81
      0.4220         9.85
      0.4230         9.90
      0.4240         9.82
      0.4250         9.82
      0.4260         9.77
      0.4270         9.89
      0.4280         9.92
      0.4290         9.90
      0.4300         9.85
      0.4310         9.84
      0.4320         9.76
      0.4330         9.90
      0.4340         9.93
      0.4350         9.92
      0.4360         9.96
      0.4370         9.88
      0.4380         9.84
      0.4390         9.92
      0.4400         9.95
      0.4410         9.96
      0.4420         9.98
      0.4430         9.96
      0.4440        10.00
      0.4450        10.08
      0.4460        10.14
      0.4470        10.00
      0.4480         9.99
      0.4490         9.98
      0.4500        10.07
      0.4510        10.21
      0.4520        10.26
      0.4530        10.22
      0.4540        10.27
      0.4550        10.27
      0.4560        10.28
      0.4570        10.27
      0.4580        10.23
      0.4590        10.23
      0.4600        10.19
      0.4610        10.15
      0.4620        10.11
      0.4630        10.01
      0.4640        10.11
      0.4650        10.05
      0.4660        10.04
      0.4670        10.15
      0.4680        10.12
      0.4690        10.06
      0.4700        10.04
      0.4710        10.04
      0.4720        10.08
      0.4730        10.12
      0.4740        10.11
      0.4750        10.11
      0.4760        10.08
      0.4770        10.05
      0.4780        10.04
      0.4790         9.96
      0.4800         9.94
      0.4810        10.04
      0.4820        10.06
      0.4830        10.16
      0.4840        10.12
      0.4850        10.16
      0.4860        10.21
      0.4870        10.18
      0.4880        10.29
      0.4890        10.29
      0.4900        10.32
      0.4910        10.29
      0.4920        10.29
      0.4930        10.25
      0.4940        10.18
      0.4950        10.12
      0.4960         9.98
      0.4970        10.09
      0.4980        10.27
      0.4990        10.35
      0.5000        10.43
      0.5010        10.48
      0.5020        10.48
      0.5030        10.54
      0.5040        10.56
      0.5050        10.51
      0.5060        10.51
      0.5070        10.48
      0.5080        10.56
      0.5090        10.59
      0.5100        10.65
      0.5110        10.72
      0.5120        10.79
      0.5130        10.87
      0.5140        10.98
      0.5150        11.04
      0.5160        11.08
      0.5170        11.14
      0.5180        11.10
      0.5190        11.07
      0.5200        11.04
      0.5210        10.96
      0.5220        11.00
      0.5230        10.95
      0.5240        11.00
      0.5250        11.13
      0.5260        11.15
      0.5270        11.23
      0.5280        11.25
      0.5290        11.30
      0.5300        11.25
      0.5310        11.21
      0.5320        11.18
      0.5330        11.14
      0.5340        11.11
      0.5350        11.08
      0.5360        11.15
      0.5370        11.15
      0.5380        11.12
      0.5390        11.16
      0.5400        11.15
      0.5410        11.18
      0.5420        11.24
      0.5430        11.22
      0.5440        11.19
      0.5450        11.04
      0.5460        11.03
      0.5470        11.02
      0.5480        10.91
      0.5490        10.95
      0.5500        10.91
      0.5510        10.87
      0.5520        10.83
      0.5530        10.94
      0.5540        11.01
      0.5550        10.98
      0.5560        10.94
      0.5570        10.97
      0.5580        11.04
      0.5590        10.94
      0.5600        10.89
      0.5610        10.85
      0.5620        10.70
      0.5630        10.79
      0.5640        10.78
      0.5650        10.99
      0.5660        11.05
      0.5670        11.01
      0.5680        11.03
      0.5690        11.08
      0.5700        11.16
      0.5710        11.20
      0.5720        11.27
      0.5730        11.20
      0.5740        11.20
      0.5750        11.23
      0.5760        11.25
      0.5770        11.19
      0.5780        11.13
      0.5790        11.19
      0.5800        11.25
      0.5810        11.29
      0.5820        11.31
      0.5830        11.30
      0.5840        11.27
      0.5850        11.13
      0.5860        11.09
      0.5870        11.13
      0.5880        11.10
      0.5890        10.94
      0.5900        10.87
      0.5910        10.79
      0.5920        10.79
      0.5930        10.82
      0.5940        10.83
      0.5950        10.89
      0.5960        10.91
      0.5970        10.92
      0.5980        10.88
      0.5990        10.93
      0.6000        10.95
      0.6010        10.99
      0.6020        11.07
      0.6030        11.03
      0.6040        10.98
      0.6050        10.98
      0.6060        10.97
      0.6070        10.91
      0.6080        10.97
      0.6090        11.02
      0.6100        11.06
      0.6110        11.16
      0.6120        11.13
      0.6130        11.10
      0.6140        11.02
      0.6150        11.03
      0.6160        11.09
      0.6170        11.05
      0.6180        11.06
      0.6190        11.06
      0.6200        11.07
      0.6210        11.10
      0.6220        11.08
      0.6230        11.03
      0.6240        11.08
      0.6250        11.12
      0.6260        11.12
      0.6270        11.15
      0.6280        11.12
      0.6290        11.16
      0.6300        11.19
      0.6310        11.19
      0.6320        11.23
      0.6330        11.24
      0.6340        11.31
      0.6350        11.30
      0.6360        11.28
      0.6370        11.31
      0.6380        11.39
      0.6390        11.34
      0.6400        11.35
      0.6410        11.41
      0.6420        11.46
      0.6430        11.55
      0.6440        11.61
      0.6450        11.64
      0.6460        11.72
      0.6470        11.70
      0.6480        11.62
      0.6490        11.66
      0.6500        11.73
      0.6510        11.70
      0.6520        11.68
      0.6530        11.74
      0.6540        11.74
      0.6550        11.85
      0.6560        11.85
      0.6570        11.81
      0.6580        11.89
      0.6590        11.98
      0.6600        12.02
      0.6610        11.99
      0.6620        11.96
      0.6630        12.02
      0.6640        12.05
      0.6650        12.00
      0.6660        11.89
      0.6670        11.94
      0.6680        12.00
      0.6690        12.00
      0.6700        11.95
      0.6710        12.10
      0.6720        12.22
      0.6730        12.28
      0.6740        12.28
      0.6750        12.27
      0.6760        12.29
      0.6770        12.46
      0.6780        12.47
      0.6790        12.43
      0.6800        12.41
      0.6810        12.47
      0.6820        12.61
      0.6830        12.63
      0.6840        12.73
      0.6850        12.82
      0.6860        12.97
      0.6870        13.13
      0.6880        13.36
      0.6890        13.43
      0.6900        13.52
      0.6910        13.56
      0.6920        13.60
      0.6930        13.69
      0.6940        13.86
      0.6950        13.96
      0.6960        14.13
      0.6970        14.19
      0.6980        14.40
      0.6990        14.66
      0.7000        14.86
      0.7010        15.05
      0.7020        15.21
      0.7030        15.31
      0.7040        15.49
      0.7050        15.73
      0.7060        15.89
      0.7070        16.06
      0.7080        16.12
      0.7090        16.26
      0.7100        16.46
      0.7110        16.59
      0.7120        16.85
      0.7130        16.94
      0.7140        16.99
      0.7150        17.17
      0.7160        17.36
      0.7170        17.61
      0.7180        17.62
      0.7190        17.64
      0.7200        17.76
      0.7210        17.89
      0.7220        17.92
      0.7230        18.10
      0.7240        18.13
      0.7250        18.26
      0.7260        18.34
      0.7270        18.44
      0.7280        18.65
      0.7290        18.78
      0.7300        18.95
      0.7310        19.11
      0.7320        19.14
      0.7330        19.27
      0.7340        19.41
      0.7350        19.54
      0.7360        19.68
      0.7370        19.76
      0.7380        19.93
      0.7390        20.21
      0.7400        20.35
      0.7410        20.43
      0.7420        20.67
      0.7430        20.82
      0.7440        20.95
      0.7450        20.96
      0.7460        21.19
      0.7470        21.31
      0.7480        21.41
      0.7490        21.58
      0.7500        21.55
      0.7510        21.61
      0.7520        21.72
      0.7530        21.79
      0.7540        21.91
      0.7550        22.04
      0.7560        22.07
      0.7570        22.18
      0.7580        22.34
      0.7590        22.37
      0.7600        22.49
      0.7610        22.55
      0.7620        22.56
      0.7630        22.71
      0.7640        22.91
      0.7650        23.10
      0.7660        23.14
      0.7670        23.21
