        Time   Palpation Force
      0.0000         1.00
      0.0010         1.00
      0.0020         1.00
      0.0030         1.00
      0.0040         1.00
      0.0050         1.00
      0.0060         1.41
      0.0070         1.60
      0.0080         1.78
      0.0090         2.03
      0.0100         2.22
      0.0110         2.47
      0.0120         2.65
      0.0130         2.82
      0.0140         3.03
      0.0150         3.24
      0.0160         3.43
      0.0170         3.61
      0.0180         3.79
      0.0190         3.98
      0.0200         4.01
      0.0210         3.97
      0.0220         4.01
      0.0230         4.06
      0.0240         4.09
      0.0250         4.10
      0.0260         4.14
      0.0270         4.14
      0.0280         4.16
      0.0290         4.04
      0.0300         4.01
      0.0310         3.96
      0.0320         3.94
      0.0330         4.01
      0.0340         4.03
      0.0350         4.01
      0.0360         3.99
      0.0370         3.96
      0.0380         3.96
      0.0390         3.95
      0.0400         3.95
      0.0410         3.97
      0.0420         3.90
      0.0430         3.86
      0.0440         3.82
      0.0450         3.80
      0.0460         3.72
      0.0470         3.66
      0.0480         3.67
      0.0490         3.74
      0.0500         3.81
      0.0510         3.93
      0.0520         3.95
      0.0530         3.93
      0.0540         5.00
      0.0550         5.02
      0.0560         5.07
      0.0570         4.60
      0.0580         4.63
      0.0590         4.63
      0.0600         4.08
      0.0610         4.56
      0.0620         4.60
      0.0630         4.07
      0.0640         4.09
      0.0650         4.67
      0.0660         4.75
      0.0670         4.87
      0.0680         4.34
      0.0690         4.36
      0.0700         4.30
      0.0710         4.19
      0.0720         4.23
      0.0730         4.25
      0.0740         4.19
      0.0750         4.24
      0.0760         4.16
      0.0770         4.13
      0.0780         4.58
      0.0790         4.60
      0.0800         4.67
      0.0810         4.71
      0.0820         4.65
      0.0830         4.75
      0.0840         4.64
      0.0850         4.63
      0.0860         4.60
      0.0870         4.04
      0.0880         4.09
      0.0890         4.07
      0.0900         4.07
      0.0910         4.08
      0.0920         4.09
      0.0930         4.03
      0.0940         4.01
      0.0950         3.99
      0.0960         4.07
      0.0970         4.05
      0.0980         4.05
      0.0990         4.05
      0.1000         4.00
      0.1010         4.00
      0.1020         4.01
      0.1030         3.97
      0.1040         3.92
      0.1050         3.82
      0.1060         3.79
      0.1070         3.74
      0.1080         3.67
      0.1090         3.69
      0.1100         3.71
      0.1110         4.18
      0.1120         4.18
      0.1130         4.24
      0.1140         4.25
      0.1150         4.31
      0.1160         3.74
      0.1170         3.71
      0.1180         3.76
      0.1190         4.32
      0.1200         4.82
      0.1210         4.29
      0.1220         3.73
      0.1230         4.28
      0.1240         4.35
      0.1250         4.47
      0.1260         4.39
      0.1270         4.43
      0.1280         4.40
      0.1290         4.47
      0.1300         4.47
      0.1310         4.45
      0.1320         3.89
      0.1330         4.29
      0.1340         3.75
      0.1350         4.81
      0.1360         4.26
      0.1370         4.38
      0.1380         4.34
      0.1390         4.34
      0.1400         4.32
      0.1410         4.36
      0.1420         4.30
      0.1430         4.32
      0.1440         4.32
      0.1450         4.25
      0.1460         4.26
      0.1470         4.27
      0.1480         4.28
      0.1490         3.78
      0.1500         3.81
      0.1510         3.80
      0.1520         3.80
      0.1530         3.88
      0.1540         3.95
      0.1550         3.90
      0.1560         3.92
      0.1570         4.47
      0.1580         4.52
      0.1590         4.48
      0.1600         4.52
      0.1610         4.52
      0.1620         4.53
      0.1630         4.43
      0.1640         4.44
      0.1650         4.53
      0.1660         4.52
      0.1670         4.48
      0.1680         4.42
      0.1690         4.41
      0.1700         4.38
      0.1710         4.36
      0.1720         4.38
      0.1730         4.42
      0.1740         4.46
      0.1750         4.48
      0.1760         4.45
      0.1770         4.33
      0.1780         4.29
      0.1790         4.40
      0.1800         4.36
      0.1810         4.37
      0.1820         4.36
      0.1830         4.37
      0.1840         4.32
      0.1850         3.84
      0.1860         3.86
      0.1870         3.85
      0.1880         3.84
      0.1890         3.78
      0.1900         3.78
      0.1910         3.78
      0.1920         3.82
      0.1930         3.83
      0.1940         3.78
      0.1950         3.79
      0.1960         3.78
      0.1970         3.81
      0.1980         3.82
      0.1990         3.84
      0.2000         3.89
      0.2010         3.86
      0.2020         4.43
      0.2030         4.48
      0.2040         4.49
      0.2050         4.56
      0.2060         4.55
      0.2070         4.53
      0.2080         4.53
      0.2090         4.59
      0.2100         4.67
      0.2110         4.70
      0.2120         4.62
      0.2130         4.56
      0.2140         4.51
      0.2150         4.03
      0.2160         4.02
      0.2170         4.04
      0.2180         4.63
      0.2190         4.61
      0.2200         4.55
      0.2210         5.12
      0.2220         5.23
      0.2230         4.71
      0.2240         5.27
      0.2250         4.67
      0.2260         4.67
      0.2270         4.69
      0.2280         4.73
      0.2290         4.80
      0.2300         4.80
      0.2310         4.77
      0.2320         5.30
      0.2330         5.35
      0.2340         5.45
      0.2350         5.35
      0.2360         4.83
      0.2370         5.37
      0.2380         4.78
      0.2390         4.75
      0.2400         4.76
      0.2410         4.76
      0.2420         4.71
      0.2430         4.83
      0.2440         4.74
      0.2450         4.80
      0.2460         4.78
      0.2470         4.84
      0.2480         4.81
      0.2490         4.79
      0.2500         4.75
      0.2510         4.71
      0.2520         4.65
      0.2530         4.57
      0.2540         4.52
      0.2550         4.49
      0.2560         5.08
      0.2570         5.08
      0.2580         5.15
      0.2590         5.20
      0.2600         5.32
      0.2610         5.27
      0.2620         5.27
      0.2630         5.22
      0.2640         5.27
      0.2650         4.66
      0.2660         4.71
      0.2670         4.66
      0.2680         4.64
      0.2690         4.59
      0.2700         4.05
      0.2710         4.00
      0.2720         3.99
      0.2730         3.96
      0.2740         3.92
      0.2750         3.95
      0.2760         3.89
      0.2770         3.81
      0.2780         3.80
      0.2790         3.74
      0.2800         3.70
      0.2810         3.66
      0.2820         3.59
      0.2830         3.57
      0.2840         3.59
      0.2850         4.16
      0.2860         4.09
      0.2870         4.15
      0.2880         4.24
      0.2890         4.26
      0.2900         4.25
      0.2910         4.29
      0.2920         4.34
      0.2930         4.36
      0.2940         4.41
      0.2950         4.43
      0.2960         4.41
      0.2970         4.44
      0.2980         3.90
      0.2990         3.92
      0.3000         3.93
      0.3010         4.48
      0.3020         4.52
      0.3030         4.49
      0.3040         4.48
      0.3050         4.56
      0.3060         4.56
      0.3070         4.52
      0.3080         4.45
      0.3090         3.92
      0.3100         4.38
      0.3110         4.96
      0.3120         4.97
      0.3130         4.96
      0.3140         5.00
      0.3150         4.97
      0.3160         5.07
      0.3170         5.07
      0.3180         5.20
      0.3190         5.13
      0.3200         5.04
      0.3210         5.11
      0.3220         5.12
      0.3230         5.12
      0.3240         5.08
      0.3250         5.07
      0.3260         5.04
      0.3270         4.48
      0.3280         4.55
      0.3290         4.45
      0.3300         4.44
      0.3310         4.45
      0.3320         3.96
      0.3330         3.98
      0.3340         3.94
      0.3350         4.00
      0.3360         3.94
      0.3370         3.89
      0.3380         3.88
      0.3390         3.87
      0.3400         4.40
      0.3410         4.45
      0.3420         4.56
      0.3430         4.60
      0.3440         4.60
      0.3450         4.58
      0.3460         4.60
      0.3470         4.69
      0.3480         4.71
      0.3490         5.36
      0.3500         5.50
      0.3510         5.52
      0.3520         5.43
      0.3530         5.42
      0.3540         5.45
      0.3550         5.37
      0.3560         5.35
      0.3570         4.87
      0.3580         4.87
      0.3590         4.95
      0.3600         4.97
      0.3610         4.94
      0.3620         4.95
      0.3630         5.09
      0.3640         5.05
      0.3650         5.00
      0.3660         4.92
      0.3670         5.43
      0.3680         5.49
      0.3690         5.50
      0.3700         5.45
      0.3710         5.36
      0.3720         5.43
      0.3730         5.49
      0.3740         5.46
      0.3750         5.55
      0.3760         5.59
      0.3770         5.56
      0.3780         5.55
      0.3790         5.47
      0.3800         5.40
      0.3810         5.41
      0.3820         5.42
      0.3830         4.83
      0.3840         4.91
      0.3850         4.94
      0.3860         4.99
      0.3870         4.96
      0.3880         5.02
      0.3890         5.04
      0.3900         5.09
      0.3910         5.19
      0.3920         5.17
      0.3930         5.22
      0.3940         5.21
      0.3950         5.26
      0.3960         5.30
      0.3970         5.35
      0.3980         5.33
      0.3990         5.29
      0.4000         5.26
      0.4010         5.78
      0.4020         5.69
      0.4030         5.67
      0.4040         5.61
      0.4050         5.65
      0.4060         5.72
      0.4070         5.77
      0.4080         5.78
      0.4090         5.70
      0.4100         5.65
      0.4110         5.53
      0.4120         5.58
      0.4130         5.01
      0.4140         4.55
      0.4150         4.58
      0.4160         4.58
      0.4170         4.51
      0.4180         4.55
      0.4190         4.60
      0.4200         4.65
      0.4210         4.58
      0.4220         4.63
      0.4230         4.60
      0.4240         4.62
      0.4250         4.58
      0.4260         4.59
      0.4270         4.65
      0.4280         4.60
      0.4290         5.18
      0.4300         5.29
      0.4310         5.42
      0.4320         5.96
      0.4330         6.06
      0.4340         6.09
      0.4350         6.17
      0.4360         6.20
      0.4370         6.35
      0.4380         6.49
      0.4390         6.60
      0.4400         6.67
      0.4410         6.84
      0.4420         6.84
      0.4430         6.88
      0.4440         6.90
      0.4450         6.93
      0.4460         6.99
      0.4470         7.12
      0.4480         7.09
      0.4490         7.15
      0.4500         7.17
      0.4510         7.23
      0.4520         7.29
      0.4530         7.37
      0.4540         7.46
      0.4550         7.50
      0.4560         7.55
      0.4570         7.57
      0.4580         7.57
      0.4590         7.58
      0.4600         7.67
      0.4610         7.73
      0.4620         7.85
      0.4630         8.00
      0.4640         8.06
      0.4650         8.20
      0.4660         8.21
      0.4670         8.16
      0.4680         8.31
      0.4690         8.22
      0.4700         8.19
      0.4710         8.11
      0.4720         8.03
      0.4730         7.99
      0.4740         8.07
      0.4750         8.15
      0.4760         8.27
      0.4770         8.30
      0.4780         8.31
      0.4790         8.38
      0.4800         8.45
      0.4810         8.44
      0.4820         8.46
      0.4830         8.50
      0.4840         8.67
      0.4850         8.77
      0.4860         8.93
      0.4870         9.10
      0.4880         9.05
      0.4890         9.32
      0.4900         9.41
      0.4910         9.62
      0.4920         9.82
      0.4930         9.97
      0.4940        10.08
      0.4950        10.20
      0.4960        10.31
      0.4970        10.41
      0.4980        10.61
      0.4990        10.68
      0.5000        10.76
      0.5010        10.87
      0.5020        10.99
      0.5030        11.10
      0.5040        11.15
      0.5050        11.35
      0.5060        11.53
      0.5070        11.58
      0.5080        11.86
      0.5090        12.00
      0.5100        12.17
      0.5110        12.39
      0.5120        12.53
      0.5130        12.79
      0.5140        12.94
      0.5150        13.11
      0.5160        13.19
      0.5170        13.42
      0.5180        13.60
      0.5190        13.85
      0.5200        14.02
      0.5210        14.30
      0.5220        14.54
      0.5230        14.69
      0.5240        14.87
      0.5250        15.11
      0.5260        15.20
      0.5270        15.42
      0.5280        15.54
      0.5290        15.65
      0.5300        15.84
      0.5310        16.03
      0.5320        16.26
      0.5330        16.27
      0.5340        16.43
      0.5350        16.58
      0.5360        16.82
      0.5370        16.97
      0.5380        17.09
      0.5390        17.22
      0.5400        17.40
      0.5410        17.51
      0.5420        17.67
      0.5430        17.95
      0.5440        18.20
      0.5450        18.31
      0.5460        18.49
      0.5470        18.66
      0.5480        18.86
      0.5490        19.12
      0.5500        19.35
      0.5510        19.47
      0.5520        19.64
      0.5530        19.94
      0.5540        20.19
      0.5550        20.35
      0.5560        20.46
      0.5570        20.61
      0.5580        20.68
      0.5590        20.79
      0.5600        20.96
      0.5610        21.27
      0.5620        21.39
      0.5630        21.50
      0.5640        21.65
      0.5650        21.66
      0.5660        21.81
      0.5670        22.00
      0.5680        22.24
      0.5690        22.33
      0.5700        22.43
      0.5710        22.59
      0.5720        22.72
      0.5730        22.87
      0.5740        22.98
      0.5750        23.16
      0.5760        23.43
      0.5770        23.58
      0.5780        23.76
      0.5790        24.00
      0.5800        24.16
      0.5810        24.17
      0.5820        24.37
      0.5830        24.54
      0.5840        24.62
      0.5850        24.93
      0.5860        25.17
      0.5870        25.29
      0.5880        25.38
      0.5890        25.54
      0.5900        25.73
      0.5910        25.82
      0.5920        25.85
      0.5930        25.91
      0.5940        26.07
      0.5950        26.14
      0.5960        26.16
      0.5970        26.32
      0.5980        26.48
      0.5990        26.54
      0.6000        26.72
      0.6010        26.95
      0.6020        27.00
      0.6030        27.12
      0.6040        27.25
      0.6050        27.24
      0.6060        27.32
      0.6070        27.44
      0.6080        27.53
      0.6090        27.65
      0.6100        27.66
      0.6110        27.80
      0.6120        27.93
      0.6130        28.17
      0.6140        28.16
      0.6150        28.23
      0.6160        28.35
      0.6170        28.40
      0.6180        28.52
      0.6190        28.54
      0.6200        28.40
      0.6210        28.42
      0.6220        28.43
      0.6230        28.50
      0.6240        28.59
      0.6250        28.62
      0.6260        28.70
      0.6270        28.77
      0.6280        28.82
      0.6290        28.93
      0.6300        29.10
      0.6310        29.16
      0.6320        29.30
      0.6330        29.30
      0.6340        29.45
      0.6350        29.66
      0.6360        29.77
      0.6370        29.93
      0.6380        30.05
      0.6390        30.23
      0.6400        30.51
      0.6410        30.52
      0.6420        30.65
      0.6430        30.74
      0.6440        30.83
      0.6450        31.13
      0.6460        31.26
      0.6470        31.33
      0.6480        31.51
      0.6490        31.56
      0.6500        31.64
      0.6510        31.73
      0.6520        31.71
      0.6530        31.82
      0.6540        31.92
      0.6550        31.95
      0.6560        32.03
      0.6570        32.14
      0.6580        32.18
      0.6590        32.26
      0.6600        32.40
      0.6610        32.63
      0.6620        32.90
      0.6630        32.98
      0.6640        33.06
      0.6650        33.02
      0.6660        32.97
      0.6670        33.02
      0.6680        33.03
      0.6690        33.11
      0.6700        33.07
      0.6710        33.14
      0.6720        33.32
      0.6730        33.42
      0.6740        33.38
      0.6750        33.55
      0.6760        33.61
      0.6770        33.53
      0.6780        33.59
      0.6790        33.69
      0.6800        33.52
      0.6810        33.49
      0.6820        33.32
      0.6830        33.45
      0.6840        33.47
      0.6850        33.52
      0.6860        33.57
      0.6870        33.63
      0.6880        33.61
      0.6890        33.58
      0.6900        33.58
      0.6910        33.58
      0.6920        33.51
      0.6930        33.39
      0.6940        33.30
      0.6950        33.18
      0.6960        33.17
      0.6970        33.13
      0.6980        33.09
      0.6990        32.91
      0.7000        33.04
      0.7010        32.88
      0.7020        32.88
      0.7030        32.72
      0.7040        32.56
      0.7050        32.44
      0.7060        32.42
      0.7070        32.38
      0.7080        32.27
      0.7090        32.32
      0.7100        32.32
      0.7110        32.26
      0.7120        32.22
      0.7130        32.20
      0.7140        32.16
      0.7150        32.07
      0.7160        31.91
      0.7170        31.88
      0.7180        31.79
      0.7190        31.73
      0.7200        31.64
      0.7210        31.69
      0.7220        31.55
      0.7230        31.58
      0.7240        31.69
      0.7250        31.70
      0.7260        31.59
      0.7270        31.50
      0.7280        31.47
      0.7290        31.35
      0.7300        31.35
      0.7310        31.31
      0.7320        31.23
      0.7330        31.15
      0.7340        31.13
      0.7350        31.02
      0.7360        31.07
      0.7370        31.05
      0.7380        30.98
      0.7390        31.03
      0.7400        30.98
      0.7410        30.96
      0.7420        31.04
      0.7430        30.95
      0.7440        30.86
      0.7450        30.82
      0.7460        30.83
      0.7470        30.90
      0.7480        30.86
      0.7490        30.83
      0.7500        30.83
      0.7510        30.86
      0.7520        30.98
      0.7530        31.03
      0.7540        31.13
      0.7550        31.26
      0.7560        31.17
      0.7570        31.11
      0.7580        31.18
      0.7590        31.14
      0.7600        31.18
      0.7610        31.22
      0.7620        31.14
      0.7630        31.14
      0.7640        31.10
      0.7650        31.12
      0.7660        31.12
      0.7670        31.11
