        Time   Palpation Force
      0.0000         1.00
      0.0010         1.00
      0.0020         1.00
      0.0030         1.65
      0.0040         2.03
      0.0050         2.47
      0.0060         2.91
      0.0070         3.29
      0.0080         3.69
      0.0090         4.12
      0.0100         4.54
      0.0110         4.96
      0.0120         5.39
      0.0130         5.87
      0.0140         6.26
      0.0150         6.64
      0.0160         7.07
      0.0170         7.51
      0.0180         7.91
      0.0190         8.36
      0.0200         8.39
      0.0210         8.37
      0.0220         8.42
      0.0230         8.36
      0.0240         8.38
      0.0250         8.36
      0.0260         8.37
      0.0270         8.44
      0.0280         8.48
      0.0290         8.45
      0.0300         8.48
      0.0310         8.48
      0.0320         8.50
      0.0330         8.46
      0.0340         8.52
      0.0350         8.60
      0.0360         8.60
      0.0370         8.60
      0.0380         8.60
      0.0390         8.57
      0.0400         8.59
      0.0410         8.55
      0.0420         8.56
      0.0430         8.63
      0.0440         8.67
      0.0450         8.74
      0.0460         8.78
      0.0470         8.71
      0.0480         8.70
      0.0490         8.68
      0.0500         8.63
      0.0510         8.67
      0.0520         8.68
      0.0530         8.68
      0.0540         8.68
      0.0550         8.67
      0.0560         8.66
      0.0570         8.70
      0.0580         8.74
      0.0590         8.75
      0.0600         8.75
      0.0610         8.76
      0.0620         8.76
      0.0630         8.76
      0.0640         8.73
      0.0650         8.68
      0.0660         8.59
      0.0670         8.60
      0.0680         8.57
      0.0690         8.64
      0.0700         8.68
      0.0710         8.70
      0.0720         8.63
      0.0730         8.61
      0.0740         8.60
      0.0750         8.56
      0.0760         8.59
      0.0770         8.55
      0.0780         8.51
      0.0790         8.51
      0.0800         8.49
      0.0810         8.51
      0.0820         8.49
      0.0830         8.44
      0.0840         8.45
      0.0850         8.51
      0.0860         8.52
      0.0870         8.56
      0.0880         8.52
      0.0890         8.50
      0.0900         8.56
      0.0910         8.56
      0.0920         8.57
      0.0930         8.57
      0.0940         8.56
      0.0950         8.56
      0.0960         8.50
      0.0970         8.54
      0.0980         8.63
      0.0990         8.60
      0.1000         8.61
      0.1010         8.63
      0.1020         8.64
      0.1030         8.68
      0.1040         8.64
      0.1050         8.62
      0.1060         8.64
      0.1070         8.59
      0.1080         8.68
      0.1090         8.62
      0.1100         8.56
      0.1110         8.49
      0.1120         8.44
      0.1130         8.45
      0.1140         8.45
      0.1150         8.51
      0.1160         8.53
      0.1170         8.51
      0.1180         8.46
      0.1190         8.51
      0.1200         8.55
      0.1210         8.55
      0.1220         8.56
      0.1230         8.57
      0.1240         8.63
      0.1250         8.64
      0.1260         8.64
      0.1270         8.71
      0.1280         8.71
      0.1290         8.79
      0.1300         8.71
      0.1310         8.65
      0.1320         8.75
      0.1330         8.75
      0.1340         8.80
      0.1350         8.84
      0.1360         8.90
      0.1370         8.83
      0.1380         8.82
      0.1390         8.78
      0.1400         8.74
      0.1410         8.75
      0.1420         8.73
      0.1430         8.71
      0.1440         8.69
      0.1450         8.65
      0.1460         8.67
      0.1470         8.59
      0.1480         8.52
      0.1490         8.49
      0.1500         8.55
      0.1510         8.64
      0.1520         8.59
      0.1530         8.57
      0.1540         8.52
      0.1550         8.43
      0.1560         8.38
      0.1570         8.45
      0.1580         8.48
      0.1590         8.47
      0.1600         8.47
      0.1610         8.45
      0.1620         8.43
      0.1630         8.40
      0.1640         8.35
      0.1650         8.34
      0.1660         8.25
      0.1670         8.32
      0.1680         8.33
      0.1690         8.29
      0.1700         8.38
      0.1710         8.34
      0.1720         8.42
      0.1730         8.42
      0.1740         8.46
      0.1750         8.50
      0.1760         8.45
      0.1770         8.40
      0.1780         8.34
      0.1790         8.44
      0.1800         8.42
      0.1810         8.41
      0.1820         8.37
      0.1830         8.46
      0.1840         8.54
      0.1850         8.63
      0.1860         8.73
      0.1870         8.67
      0.1880         8.73
      0.1890         8.74
      0.1900         8.65
      0.1910         8.67
      0.1920         8.68
      0.1930         8.72
      0.1940         8.74
      0.1950         8.71
      0.1960         8.76
      0.1970         8.79
      0.1980         8.84
      0.1990         8.76
      0.2000         8.75
      0.2010         8.79
      0.2020         8.84
      0.2030         8.77
      0.2040         8.72
      0.2050         8.65
      0.2060         8.57
      0.2070         8.63
      0.2080         8.59
      0.2090         8.64
      0.2100         8.60
      0.2110         8.67
      0.2120         8.65
      0.2130         8.64
      0.2140         8.57
      0.2150         8.56
      0.2160         8.61
      0.2170         8.63
      0.2180         8.59
      0.2190         8.60
      0.2200         8.70
      0.2210         8.59
      0.2220         8.52
      0.2230         8.53
      0.2240         8.49
      0.2250         8.52
      0.2260         8.53
      0.2270         8.55
      0.2280         8.55
      0.2290         8.53
      0.2300         8.63
      0.2310         8.60
      0.2320         8.49
      0.2330         8.48
      0.2340         8.57
      0.2350         8.53
      0.2360         8.45
      0.2370         8.42
      0.2380         8.44
      0.2390         8.48
      0.2400         8.48
      0.2410         8.50
      0.2420         8.56
      0.2430         8.49
      0.2440         8.55
      0.2450         8.44
      0.2460         8.48
      0.2470         8.52
      0.2480         8.59
      0.2490         8.64
      0.2500         8.60
      0.2510         8.55
      0.2520         8.56
      0.2530         8.55
      0.2540         8.44
      0.2550         8.52
      0.2560         8.56
      0.2570         8.61
      0.2580         8.64
      0.2590         8.59
      0.2600         8.55
      0.2610         8.63
      0.2620         8.63
      0.2630         8.65
      0.2640         8.67
      0.2650         8.72
      0.2660         8.71
      0.2670         8.63
      0.2680         8.55
      0.2690         8.49
      0.2700         8.52
      0.2710         8.52
      0.2720         8.53
      0.2730         8.56
      0.2740         8.59
      0.2750         8.59
      0.2760         8.57
      0.2770         8.55
      0.2780         8.49
      0.2790         8.54
      0.2800         8.55
      0.2810         8.60
      0.2820         8.59
      0.2830         8.59
      0.2840         8.49
      0.2850         8.44
      0.2860         8.47
      0.2870         8.51
      0.2880         8.53
      0.2890         8.56
      0.2900         8.57
      0.2910         8.59
      0.2920         8.60
      0.2930         8.52
      0.2940         8.49
      0.2950         8.45
      0.2960         8.49
      0.2970         8.50
      0.2980         8.54
      0.2990         8.54
      0.3000         8.52
      0.3010         8.42
      0.3020         8.44
      0.3030         8.49
      0.3040         8.59
      0.3050         8.65
      0.3060         8.64
      0.3070         8.67
      0.3080         8.64
      0.3090         8.57
      0.3100         8.51
      0.3110         8.55
      0.3120         8.53
      0.3130         8.55
      0.3140         8.53
      0.3150         8.50
      0.3160         8.40
      0.3170         8.36
      0.3180         8.40
      0.3190         8.40
      0.3200         8.37
      0.3210         8.36
      0.3220         8.36
      0.3230         8.38
      0.3240         8.37
      0.3250         8.38
      0.3260         8.36
      0.3270         8.33
      0.3280         8.37
      0.3290         8.45
      0.3300         8.48
      0.3310         8.45
      0.3320         8.48
      0.3330         8.55
      0.3340         8.55
      0.3350         8.63
      0.3360         8.74
      0.3370         8.78
      0.3380         8.69
      0.3390         8.72
      0.3400         8.72
      0.3410         8.78
      0.3420         8.82
      0.3430         8.80
      0.3440         8.80
      0.3450         8.76
      0.3460         8.79
      0.3470         8.79
      0.3480         8.71
      0.3490         8.65
      0.3500         8.67
      0.3510         8.65
      0.3520         8.64
      0.3530         8.64
      0.3540         8.71
      0.3550         8.67
      0.3560         8.63
      0.3570         8.64
      0.3580         8.67
      0.3590         8.68
      0.3600         8.69
      0.3610         8.65
      0.3620         8.60
      0.3630         8.60
      0.3640         8.60
      0.3650         8.72
      0.3660         8.72
      0.3670         8.72
      0.3680         8.76
      0.3690         8.75
      0.3700         8.67
      0.3710         8.70
      0.3720         8.72
      0.3730         8.68
      0.3740         8.64
      0.3750         8.63
      0.3760         8.64
      0.3770         8.59
      0.3780         8.57
      0.3790         8.46
      0.3800         8.42
      0.3810         8.45
      0.3820         8.44
      0.3830         8.46
      0.3840         8.45
      0.3850         8.37
      0.3860         8.34
      0.3870         8.40
      0.3880         8.48
      0.3890         8.48
      0.3900         8.57
      0.3910         8.59
      0.3920         8.64
      0.3930         8.70
      0.3940         8.76
      0.3950         8.85
      0.3960         8.78
      0.3970         8.82
      0.3980         8.84
      0.3990         8.90
      0.4000         8.93
      0.4010         8.94
      0.4020         8.98
      0.4030         8.92
      0.4040         8.98
      0.4050         8.88
      0.4060         8.94
      0.4070         8.87
      0.4080         8.83
      0.4090         8.84
      0.4100         8.80
      0.4110         8.77
      0.4120         8.69
      0.4130         8.69
      0.4140         8.60
      0.4150         8.54
      0.4160         8.65
      0.4170         8.64
      0.4180         8.59
      0.4190         8.57
      0.4200         8.61
      0.4210         8.60
      0.4220         8.57
      0.4230         8.60
      0.4240         8.59
      0.4250         8.70
      0.4260         8.71
      0.4270         8.72
      0.4280         8.70
      0.4290         8.72
      0.4300         8.71
      0.4310         8.65
      0.4320         8.68
      0.4330         8.60
      0.4340         8.69
      0.4350         8.65
      0.4360         8.63
      0.4370         8.60
      0.4380         8.64
      0.4390         8.69
      0.4400         8.68
      0.4410         8.65
      0.4420         8.73
      0.4430         8.68
      0.4440         8.69
      0.4450         8.76
      0.4460         8.72
      0.4470         8.73
      0.4480         8.75
      0.4490         8.80
      0.4500         8.84
      0.4510         8.92
      0.4520         8.90
      0.4530         9.00
      0.4540         8.90
      0.4550         8.88
      0.4560         8.87
      0.4570         8.90
      0.4580         8.84
      0.4590         8.77
      0.4600         8.79
      0.4610         8.79
      0.4620         8.72
      0.4630         8.79
      0.4640         8.75
      0.4650         8.66
      0.4660         8.66
      0.4670         8.65
      0.4680         8.66
      0.4690         8.62
      0.4700         8.58
      0.4710         8.57
      0.4720         8.60
      0.4730         8.50
      0.4740         8.57
      0.4750         8.60
      0.4760         8.57
      0.4770         8.57
      0.4780         8.67
      0.4790         8.64
      0.4800         8.64
      0.4810         8.67
      0.4820         8.72
      0.4830         8.72
      0.4840         8.75
      0.4850         8.74
      0.4860         8.72
      0.4870         8.67
      0.4880         8.64
      0.4890         8.61
      0.4900         8.57
      0.4910         8.55
      0.4920         8.50
      0.4930         8.49
      0.4940         8.49
      0.4950         8.49
      0.4960         8.48
      0.4970         8.46
      0.4980         8.42
      0.4990         8.45
      0.5000         8.44
      0.5010         8.40
      0.5020         8.37
      0.5030         8.35
      0.5040         8.27
      0.5050         8.25
      0.5060         8.21
      0.5070         8.27
      0.5080         8.29
      0.5090         8.33
      0.5100         8.34
      0.5110         8.37
      0.5120         8.38
      0.5130         8.46
      0.5140         8.44
      0.5150         8.49
      0.5160         8.52
      0.5170         8.50
      0.5180         8.53
      0.5190         8.56
      0.5200         8.56
      0.5210         8.57
      0.5220         8.56
      0.5230         8.55
      0.5240         8.61
      0.5250         8.68
      0.5260         8.75
      0.5270         8.75
      0.5280         8.76
      0.5290         8.75
      0.5300         8.82
      0.5310         8.84
      0.5320         8.84
      0.5330         8.82
      0.5340         8.88
      0.5350         8.84
      0.5360         8.87
      0.5370         8.90
      0.5380         8.90
      0.5390         8.87
      0.5400         8.89
      0.5410         8.86
      0.5420         8.86
      0.5430         8.89
      0.5440         8.93
      0.5450         8.93
      0.5460         8.91
      0.5470         8.94
      0.5480         8.91
      0.5490         8.91
      0.5500         8.87
      0.5510         8.91
      0.5520         8.93
      0.5530         8.97
      0.5540         8.94
      0.5550         8.95
      0.5560         8.97
      0.5570         8.98
      0.5580         8.95
      0.5590         8.95
      0.5600         9.01
      0.5610         9.07
      0.5620         9.06
      0.5630         9.06
      0.5640         8.98
      0.5650         8.99
      0.5660         9.08
      0.5670         9.05
      0.5680         9.06
      0.5690         9.09
      0.5700         9.17
      0.5710         9.09
      0.5720         9.08
      0.5730         9.02
      0.5740         9.01
      0.5750         9.01
      0.5760         8.97
      0.5770         8.92
      0.5780         8.94
      0.5790         8.98
      0.5800         8.88
      0.5810         8.88
      0.5820         8.87
      0.5830         8.90
      0.5840         8.86
      0.5850         8.84
      0.5860         8.79
      0.5870         8.78
      0.5880         8.82
      0.5890         8.80
      0.5900         8.75
      0.5910         8.76
      0.5920         8.80
      0.5930         8.88
      0.5940         8.88
      0.5950         8.91
      0.5960         8.92
      0.5970         8.96
      0.5980         8.91
      0.5990         8.98
      0.6000         9.02
      0.6010         8.99
      0.6020         9.06
      0.6030         9.00
      0.6040         9.06
      0.6050         9.03
      0.6060         8.99
      0.6070         8.92
      0.6080         8.88
      0.6090         8.87
      0.6100         8.84
      0.6110         8.88
      0.6120         8.88
      0.6130         8.82
      0.6140         8.84
      0.6150         8.78
      0.6160         8.74
      0.6170         8.72
      0.6180         8.79
      0.6190         8.72
      0.6200         8.75
      0.6210         8.72
      0.6220         8.65
      0.6230         8.68
      0.6240         8.74
      0.6250         8.76
      0.6260         8.76
      0.6270         8.82
      0.6280         8.80
      0.6290         8.79
      0.6300         8.76
      0.6310         8.71
      0.6320         8.64
      0.6330         8.65
      0.6340         8.67
      0.6350         8.72
      0.6360         8.79
      0.6370         8.77
      0.6380         8.73
      0.6390         8.72
      0.6400         8.72
      0.6410         8.80
      0.6420         8.80
      0.6430         8.84
      0.6440         8.83
      0.6450         8.88
      0.6460         8.95
      0.6470         8.92
      0.6480         8.98
      0.6490         9.01
      0.6500         9.11
      0.6510         9.11
      0.6520         9.21
      0.6530         9.21
      0.6540         9.18
      0.6550         9.20
      0.6560         9.14
      0.6570         9.18
      0.6580         9.18
      0.6590         9.21
      0.6600         9.18
      0.6610         9.16
      0.6620         9.20
      0.6630         9.14
      0.6640         9.11
      0.6650         9.03
      0.6660         8.97
      0.6670         9.07
      0.6680         9.07
      0.6690         9.10
      0.6700         8.99
      0.6710         9.01
      0.6720         9.03
      0.6730         9.05
      0.6740         9.09
      0.6750         9.10
      0.6760         9.16
      0.6770         9.13
      0.6780         9.16
      0.6790         9.16
      0.6800         9.21
      0.6810         9.25
      0.6820         9.25
      0.6830         9.26
      0.6840         9.26
      0.6850         9.29
      0.6860         9.29
      0.6870         9.20
      0.6880         9.17
      0.6890         9.20
      0.6900         9.28
      0.6910         9.37
      0.6920         9.22
      0.6930         9.25
      0.6940         9.30
      0.6950         9.29
      0.6960         9.28
      0.6970         9.36
      0.6980         9.38
      0.6990         9.40
      0.7000         9.43
      0.7010         9.41
      0.7020         9.45
      0.7030         9.48
      0.7040         9.47
      0.7050         9.47
      0.7060         9.56
      0.7070         9.64
      0.7080         9.72
      0.7090         9.72
      0.7100         9.76
      0.7110         9.74
      0.7120         9.89
      0.7130         9.87
      0.7140         9.85
      0.7150         9.90
      0.7160         9.93
      0.7170         9.95
      0.7180        10.05
      0.7190        10.09
      0.7200        10.07
      0.7210        10.09
      0.7220        10.13
      0.7230        10.15
      0.7240        10.25
      0.7250        10.32
      0.7260        10.39
      0.7270        10.44
      0.7280        10.47
      0.7290        10.44
      0.7300        10.51
      0.7310        10.49
      0.7320        10.49
      0.7330        10.52
      0.7340        10.56
      0.7350        10.58
      0.7360        10.59
      0.7370        10.60
      0.7380        10.58
      0.7390        10.62
      0.7400        10.63
      0.7410        10.69
      0.7420        10.66
      0.7430        10.71
      0.7440        10.77
      0.7450        10.79
      0.7460        10.75
      0.7470        10.81
      0.7480        10.82
      0.7490        10.87
      0.7500        10.86
      0.7510        10.97
      0.7520        11.03
      0.7530        11.65
      0.7540        11.74
      0.7550        11.78
      0.7560        11.94
      0.7570        11.98
      0.7580        12.10
      0.7590        12.28
      0.7600        12.40
      0.7610        12.53
      0.7620        12.60
      0.7630        12.67
      0.7640        12.75
      0.7650        13.33
      0.7660        13.38
      0.7670        13.39
