        Time   Palpation Force
      0.0000         1.00
      0.0010         1.00
      0.0020         1.38
      0.0030         1.82
      0.0040         2.30
      0.0050         2.73
      0.0060         3.16
      0.0070         3.59
      0.0080         3.99
      0.0090         4.41
      0.0100         4.85
      0.0110         5.29
      0.0120         5.73
      0.0130         6.17
      0.0140         6.58
      0.0150         7.00
      0.0160         7.46
      0.0170         7.91
      0.0180         8.33
      0.0190         8.77
      0.0200         8.79
      0.0210         8.79
      0.0220         8.79
      0.0230         8.77
      0.0240         8.76
      0.0250         8.83
      0.0260         8.88
      0.0270         8.89
      0.0280         8.91
      0.0290         8.96
      0.0300         8.99
      0.0310         9.08
      0.0320         9.15
      0.0330         9.16
      0.0340         9.20
      0.0350         9.22
      0.0360         9.23
      0.0370         9.30
      0.0380         9.33
      0.0390         9.34
      0.0400         9.32
      0.0410         9.31
      0.0420         9.30
      0.0430         9.34
      0.0440         9.33
      0.0450         9.27
      0.0460         9.26
      0.0470         9.26
      0.0480         9.33
      0.0490         9.31
      0.0500         9.38
      0.0510         9.33
      0.0520         9.34
      0.0530         9.36
      0.0540         9.38
      0.0550         9.41
      0.0560         9.32
      0.0570         9.25
      0.0580         9.26
      0.0590         9.23
      0.0600         9.27
      0.0610         9.25
      0.0620         9.25
      0.0630         9.22
      0.0640         9.19
      0.0650         9.21
      0.0660         9.18
      0.0670         9.22
      0.0680         9.18
      0.0690         9.12
      0.0700         9.01
      0.0710         8.99
      0.0720         8.95
      0.0730         8.91
      0.0740         8.78
      0.0750         8.77
      0.0760         8.85
      0.0770         8.85
      0.0780         8.85
      0.0790         8.88
      0.0800         8.83
      0.0810         8.81
      0.0820         8.81
      0.0830         8.85
      0.0840         8.89
      0.0850         8.91
      0.0860         8.92
      0.0870         8.91
      0.0880         8.93
      0.0890         8.99
      0.0900         9.00
      0.0910         9.07
      0.0920         9.01
      0.0930         9.04
      0.0940         9.15
      0.0950         9.10
      0.0960         9.14
      0.0970         9.11
      0.0980         9.08
      0.0990         9.08
      0.1000         9.05
      0.1010         9.08
      0.1020         9.08
      0.1030         9.07
      0.1040         9.08
      0.1050         9.08
      0.1060         9.07
      0.1070         9.03
      0.1080         9.00
      0.1090         8.99
      0.1100         8.93
      0.1110         8.83
      0.1120         8.81
      0.1130         8.83
      0.1140         8.85
      0.1150         8.85
      0.1160         8.85
      0.1170         8.85
      0.1180         8.83
      0.1190         8.87
      0.1200         8.89
      0.1210         8.91
      0.1220         8.91
      0.1230         8.93
      0.1240         8.88
      0.1250         8.85
      0.1260         8.81
      0.1270         8.84
      0.1280         8.88
      0.1290         8.84
      0.1300         8.88
      0.1310         8.97
      0.1320         9.04
      0.1330         9.01
      0.1340         8.97
      0.1350         9.08
      0.1360         9.00
      0.1370         9.05
      0.1380         9.08
      0.1390         8.99
      0.1400         8.99
      0.1410         8.97
      0.1420         8.99
      0.1430         8.95
      0.1440         8.98
      0.1450         8.98
      0.1460         8.99
      0.1470         8.93
      0.1480         8.95
      0.1490         8.96
      0.1500         8.99
      0.1510         8.92
      0.1520         8.87
      0.1530         8.87
      0.1540         8.81
      0.1550         8.76
      0.1560         8.76
      0.1570         8.70
      0.1580         8.74
      0.1590         8.77
      0.1600         8.84
      0.1610         8.87
      0.1620         8.87
      0.1630         8.91
      0.1640         8.93
      0.1650         8.95
      0.1660         8.98
      0.1670         9.06
      0.1680         8.95
      0.1690         8.95
      0.1700         8.94
      0.1710         8.89
      0.1720         8.95
      0.1730         8.95
      0.1740         8.99
      0.1750         9.03
      0.1760         9.04
      0.1770         9.07
      0.1780         9.02
      0.1790         9.06
      0.1800         8.93
      0.1810         8.85
      0.1820         8.79
      0.1830         8.72
      0.1840         8.61
      0.1850         8.60
      0.1860         8.61
      0.1870         8.65
      0.1880         8.70
      0.1890         8.70
      0.1900         8.73
      0.1910         8.75
      0.1920         8.75
      0.1930         8.76
      0.1940         8.77
      0.1950         8.73
      0.1960         8.72
      0.1970         8.73
      0.1980         8.77
      0.1990         8.72
      0.2000         8.78
      0.2010         8.83
      0.2020         8.84
      0.2030         8.90
      0.2040         9.02
      0.2050         9.07
      0.2060         9.03
      0.2070         9.00
      0.2080         9.02
      0.2090         9.03
      0.2100         8.98
      0.2110         8.99
      0.2120         8.93
      0.2130         8.92
      0.2140         8.95
      0.2150         8.95
      0.2160         9.00
      0.2170         9.00
      0.2180         9.00
      0.2190         9.03
      0.2200         9.06
      0.2210         9.00
      0.2220         9.01
      0.2230         8.99
      0.2240         8.92
      0.2250         8.88
      0.2260         8.91
      0.2270         8.85
      0.2280         8.84
      0.2290         8.84
      0.2300         8.85
      0.2310         8.85
      0.2320         8.92
      0.2330         8.89
      0.2340         8.84
      0.2350         8.78
      0.2360         8.80
      0.2370         8.76
      0.2380         8.77
      0.2390         8.78
      0.2400         8.80
      0.2410         8.89
      0.2420         8.92
      0.2430         9.00
      0.2440         9.03
      0.2450         9.01
      0.2460         9.04
      0.2470         9.04
      0.2480         8.99
      0.2490         8.97
      0.2500         8.99
      0.2510         9.04
      0.2520         9.01
      0.2530         9.08
      0.2540         9.12
      0.2550         9.15
      0.2560         9.08
      0.2570         9.11
      0.2580         9.02
      0.2590         9.00
      0.2600         8.93
      0.2610         8.93
      0.2620         8.95
      0.2630         8.83
      0.2640         8.83
      0.2650         8.89
      0.2660         8.87
      0.2670         8.87
      0.2680         8.93
      0.2690         9.00
      0.2700         9.00
      0.2710         8.92
      0.2720         8.94
      0.2730         8.89
      0.2740         8.87
      0.2750         8.92
      0.2760         8.95
      0.2770         8.95
      0.2780         9.00
      0.2790         9.02
      0.2800         9.02
      0.2810         8.96
      0.2820         8.95
      0.2830         9.04
      0.2840         9.03
      0.2850         8.99
      0.2860         9.04
      0.2870         8.99
      0.2880         9.02
      0.2890         8.96
      0.2900         9.00
      0.2910         9.09
      0.2920         9.06
      0.2930         9.10
      0.2940         9.07
      0.2950         8.99
      0.2960         8.96
      0.2970         8.97
      0.2980         9.00
      0.2990         9.03
      0.3000         9.01
      0.3010         9.03
      0.3020         9.01
      0.3030         8.93
      0.3040         8.96
      0.3050         8.93
      0.3060         8.88
      0.3070         8.92
      0.3080         8.88
      0.3090         8.88
      0.3100         8.91
      0.3110         8.87
      0.3120         8.91
      0.3130         8.87
      0.3140         8.94
      0.3150         8.98
      0.3160         9.00
      0.3170         8.96
      0.3180         8.94
      0.3190         8.90
      0.3200         8.95
      0.3210         8.98
      0.3220         9.02
      0.3230         9.03
      0.3240         8.98
      0.3250         8.94
      0.3260         8.92
      0.3270         8.96
      0.3280         8.99
      0.3290         9.00
      0.3300         8.93
      0.3310         8.88
      0.3320         8.85
      0.3330         8.87
      0.3340         8.88
      0.3350         8.88
      0.3360         8.88
      0.3370         8.92
      0.3380         8.92
      0.3390         9.04
      0.3400         9.08
      0.3410         9.07
      0.3420         9.03
      0.3430         9.08
      0.3440         9.10
      0.3450         9.16
      0.3460         9.20
      0.3470         9.25
      0.3480         9.20
      0.3490         9.19
      0.3500         9.18
      0.3510         9.15
      0.3520         9.18
      0.3530         9.15
      0.3540         9.16
      0.3550         9.16
      0.3560         9.20
      0.3570         9.23
      0.3580         9.31
      0.3590         9.23
      0.3600         9.23
      0.3610         9.28
      0.3620         9.27
      0.3630         9.23
      0.3640         9.26
      0.3650         9.24
      0.3660         9.26
      0.3670         9.20
      0.3680         9.24
      0.3690         9.19
      0.3700         9.16
      0.3710         9.28
      0.3720         9.22
      0.3730         9.26
      0.3740         9.27
      0.3750         9.28
      0.3760         9.29
      0.3770         9.22
      0.3780         9.16
      0.3790         9.14
      0.3800         9.06
      0.3810         9.02
      0.3820         9.00
      0.3830         8.99
      0.3840         9.00
      0.3850         9.04
      0.3860         8.93
      0.3870         8.98
      0.3880         8.95
      0.3890         9.00
      0.3900         9.07
      0.3910         9.06
      0.3920         9.10
      0.3930         9.07
      0.3940         9.03
      0.3950         9.00
      0.3960         9.03
      0.3970         9.07
      0.3980         9.03
      0.3990         9.05
      0.4000         9.11
      0.4010         9.11
      0.4020         9.13
      0.4030         9.17
      0.4040         9.18
      0.4050         9.17
      0.4060         9.26
      0.4070         9.26
      0.4080         9.34
      0.4090         9.38
      0.4100         9.37
      0.4110         9.29
      0.4120         9.31
      0.4130         9.30
      0.4140         9.23
      0.4150         9.25
      0.4160         9.22
      0.4170         9.16
      0.4180         9.18
      0.4190         9.15
      0.4200         9.11
      0.4210         9.11
      0.4220         9.17
      0.4230         9.15
      0.4240         9.11
      0.4250         9.11
      0.4260         9.11
      0.4270         9.08
      0.4280         9.02
      0.4290         9.00
      0.4300         9.02
      0.4310         9.04
      0.4320         9.02
      0.4330         9.06
      0.4340         9.10
      0.4350         9.15
      0.4360         9.08
      0.4370         9.14
      0.4380         9.14
      0.4390         9.16
      0.4400         9.12
      0.4410         9.10
      0.4420         9.08
      0.4430         9.08
      0.4440         9.11
      0.4450         9.01
      0.4460         9.00
      0.4470         9.04
      0.4480         9.01
      0.4490         9.01
      0.4500         9.04
      0.4510         9.08
      0.4520         9.08
      0.4530         9.08
      0.4540         9.12
      0.4550         9.05
      0.4560         9.10
      0.4570         9.08
      0.4580         9.12
      0.4590         9.18
      0.4600         9.22
      0.4610         9.24
      0.4620         9.25
      0.4630         9.22
      0.4640         9.20
      0.4650         9.23
      0.4660         9.20
      0.4670         9.12
      0.4680         9.14
      0.4690         9.06
      0.4700         9.02
      0.4710         9.04
      0.4720         9.03
      0.4730         9.03
      0.4740         9.03
      0.4750         9.04
      0.4760         9.00
      0.4770         9.00
      0.4780         8.99
      0.4790         8.91
      0.4800         8.97
      0.4810         8.97
      0.4820         8.92
      0.4830         8.95
      0.4840         8.91
      0.4850         9.02
      0.4860         9.10
      0.4870         9.14
      0.4880         9.14
      0.4890         9.23
      0.4900         9.20
      0.4910         9.20
      0.4920         9.20
      0.4930         9.15
      0.4940         9.14
      0.4950         9.15
      0.4960         9.22
      0.4970         9.19
      0.4980         9.18
      0.4990         9.22
      0.5000         9.15
      0.5010         9.09
      0.5020         9.11
      0.5030         9.08
      0.5040         9.14
      0.5050         9.01
      0.5060         8.92
      0.5070         8.92
      0.5080         8.96
      0.5090         8.92
      0.5100         8.95
      0.5110         8.96
      0.5120         8.95
      0.5130         9.00
      0.5140         8.96
      0.5150         8.98
      0.5160         8.95
      0.5170         8.98
      0.5180         8.99
      0.5190         8.98
      0.5200         9.03
      0.5210         9.08
      0.5220         9.07
      0.5230         9.10
      0.5240         9.11
      0.5250         9.21
      0.5260         9.22
      0.5270         9.19
      0.5280         9.16
      0.5290         9.12
      0.5300         9.12
      0.5310         9.11
      0.5320         9.08
      0.5330         9.02
      0.5340         9.04
      0.5350         9.03
      0.5360         9.03
      0.5370         8.96
      0.5380         8.94
      0.5390         8.91
      0.5400         8.83
      0.5410         8.81
      0.5420         8.88
      0.5430         8.84
      0.5440         8.83
      0.5450         8.83
      0.5460         8.92
      0.5470         8.96
      0.5480         8.95
      0.5490         8.98
      0.5500         8.98
      0.5510         9.00
      0.5520         8.95
      0.5530         9.00
      0.5540         8.92
      0.5550         8.93
      0.5560         9.00
      0.5570         9.06
      0.5580         9.06
      0.5590         9.06
      0.5600         9.07
      0.5610         9.04
      0.5620         9.02
      0.5630         9.07
      0.5640         9.08
      0.5650         9.00
      0.5660         8.89
      0.5670         8.87
      0.5680         8.87
      0.5690         8.87
      0.5700         8.85
      0.5710         8.83
      0.5720         8.91
      0.5730         8.93
      0.5740         9.06
      0.5750         9.02
      0.5760         9.00
      0.5770         9.00
      0.5780         9.02
      0.5790         9.00
      0.5800         9.03
      0.5810         9.06
      0.5820         9.04
      0.5830         9.06
      0.5840         9.06
      0.5850         9.08
      0.5860         9.18
      0.5870         9.16
      0.5880         9.16
      0.5890         9.14
      0.5900         9.07
      0.5910         9.04
      0.5920         9.10
      0.5930         9.08
      0.5940         9.01
      0.5950         9.05
      0.5960         8.97
      0.5970         9.01
      0.5980         9.01
      0.5990         9.03
      0.6000         9.04
      0.6010         9.01
      0.6020         9.03
      0.6030         9.08
      0.6040         9.11
      0.6050         9.14
      0.6060         9.06
      0.6070         9.08
      0.6080         9.10
      0.6090         9.11
      0.6100         9.25
      0.6110         9.23
      0.6120         9.15
      0.6130         9.14
      0.6140         9.18
      0.6150         9.14
      0.6160         9.16
      0.6170         9.14
      0.6180         9.18
      0.6190         9.18
      0.6200         9.19
      0.6210         9.27
      0.6220         9.27
      0.6230         9.19
      0.6240         9.16
      0.6250         9.15
      0.6260         9.14
      0.6270         9.07
      0.6280         9.07
      0.6290         9.15
      0.6300         9.11
      0.6310         9.14
      0.6320         9.22
      0.6330         9.21
      0.6340         9.18
      0.6350         9.17
      0.6360         9.14
      0.6370         9.12
      0.6380         9.07
      0.6390         9.10
      0.6400         9.11
      0.6410         9.06
      0.6420         9.07
      0.6430         9.02
      0.6440         8.96
      0.6450         8.99
      0.6460         9.03
      0.6470         9.07
      0.6480         9.07
      0.6490         9.00
      0.6500         8.92
      0.6510         8.88
      0.6520         8.88
      0.6530         8.88
      0.6540         8.91
      0.6550         9.00
      0.6560         9.04
      0.6570         9.03
      0.6580         9.07
      0.6590         9.06
      0.6600         9.04
      0.6610         9.06
      0.6620         9.00
      0.6630         9.04
      0.6640         9.06
      0.6650         9.00
      0.6660         9.02
      0.6670         9.07
      0.6680         9.07
      0.6690         9.07
      0.6700         9.15
      0.6710         9.14
      0.6720         9.08
      0.6730         9.06
      0.6740         9.14
      0.6750         9.06
      0.6760         9.07
      0.6770         9.14
      0.6780         9.13
      0.6790         9.16
      0.6800         9.17
      0.6810         9.12
      0.6820         9.22
      0.6830         9.22
      0.6840         9.27
      0.6850         9.32
      0.6860         9.32
      0.6870         9.32
      0.6880         9.37
      0.6890         9.37
      0.6900         9.34
      0.6910         9.42
      0.6920         9.50
      0.6930         9.50
      0.6940         9.41
      0.6950         9.41
      0.6960         9.37
      0.6970         9.31
      0.6980         9.27
      0.6990         9.27
      0.7000         9.23
      0.7010         9.23
      0.7020         9.16
      0.7030         9.15
      0.7040         9.16
      0.7050         9.11
      0.7060         9.11
      0.7070         9.03
      0.7080         9.01
      0.7090         9.04
      0.7100         9.10
      0.7110         9.05
      0.7120         9.00
      0.7130         9.04
      0.7140         9.07
      0.7150         9.10
      0.7160         9.10
      0.7170         9.15
      0.7180         9.16
      0.7190         9.10
      0.7200         9.11
      0.7210         9.15
      0.7220         9.23
      0.7230         9.22
      0.7240         9.16
      0.7250         9.23
      0.7260         9.20
      0.7270         9.26
      0.7280         9.20
      0.7290         9.22
      0.7300         9.19
      0.7310         9.15
      0.7320         9.12
      0.7330         9.10
      0.7340         9.08
      0.7350         9.10
      0.7360         9.08
      0.7370         9.04
      0.7380         9.07
      0.7390         9.10
      0.7400         9.14
      0.7410         9.16
      0.7420         9.04
      0.7430         9.02
      0.7440         8.96
      0.7450         8.92
      0.7460         9.00
      0.7470         9.04
      0.7480         9.00
      0.7490         8.98
      0.7500         8.96
      0.7510         8.99
      0.7520         9.00
      0.7530         9.04
      0.7540         8.98
      0.7550         8.92
      0.7560         8.96
      0.7570         8.91
      0.7580         8.92
      0.7590         8.89
      0.7600         8.81
      0.7610         8.80
      0.7620         8.80
      0.7630         8.88
      0.7640         8.93
      0.7650         8.96
      0.7660         8.89
      0.7670         8.87
