        Time   Palpation Force
      0.0000         1.00
      0.0010         1.00
      0.0020         1.38
      0.0030         1.81
      0.0040         2.15
      0.0050         2.64
      0.0060         3.09
      0.0070         3.50
      0.0080         3.94
      0.0090         4.40
      0.0100         4.82
      0.0110         5.30
      0.0120         5.70
      0.0130         6.13
      0.0140         6.60
      0.0150         7.00
      0.0160         7.41
      0.0170         7.86
      0.0180         8.24
      0.0190         8.68
      0.0200         8.64
      0.0210         8.64
      0.0220         8.60
      0.0230         8.56
      0.0240         8.65
      0.0250         8.57
      0.0260         8.57
      0.0270         8.60
      0.0280         8.58
      0.0290         8.53
      0.0300         8.46
      0.0310         8.38
      0.0320         8.37
      0.0330         8.34
      0.0340         8.85
      0.0350         8.88
      0.0360         8.39
      0.0370         8.34
      0.0380         8.37
      0.0390         8.34
      0.0400         8.39
      0.0410         8.34
      0.0420         8.35
      0.0430         8.45
      0.0440         8.46
      0.0450         8.48
      0.0460         8.45
      0.0470         8.41
      0.0480         8.44
      0.0490         8.48
      0.0500         8.48
      0.0510         8.54
      0.0520         8.54
      0.0530         8.50
      0.0540         8.47
      0.0550         8.42
      0.0560         8.43
      0.0570         8.45
      0.0580         8.50
      0.0590         8.47
      0.0600         8.49
      0.0610         8.55
      0.0620         8.51
      0.0630         8.47
      0.0640         8.41
      0.0650         8.46
      0.0660         8.46
      0.0670         8.51
      0.0680         8.51
      0.0690         8.45
      0.0700         8.57
      0.0710         8.62
      0.0720         8.66
      0.0730         8.71
      0.0740         8.71
      0.0750         8.71
      0.0760         8.65
      0.0770         8.58
      0.0780         8.53
      0.0790         8.53
      0.0800         8.48
      0.0810         8.43
      0.0820         8.45
      0.0830         8.39
      0.0840         8.46
      0.0850         8.37
      0.0860         8.37
      0.0870         8.34
      0.0880         8.35
      0.0890         8.34
      0.0900         8.32
      0.0910         8.78
      0.0920         8.82
      0.0930         8.82
      0.0940         8.35
      0.0950         8.43
      0.0960         8.45
      0.0970         8.54
      0.0980         8.49
      0.0990         8.54
      0.1000         8.54
      0.1010         8.62
      0.1020         8.62
      0.1030         8.61
      0.1040         8.58
      0.1050         8.67
      0.1060         8.72
      0.1070         8.68
      0.1080         8.65
      0.1090         8.69
      0.1100         8.63
      0.1110         8.57
      0.1120         8.57
      0.1130         8.58
      0.1140         8.57
      0.1150         8.48
      0.1160         8.48
      0.1170         8.50
      0.1180         8.58
      0.1190         8.54
      0.1200         8.54
      0.1210         8.98
      0.1220         8.46
      0.1230         8.50
      0.1240         8.54
      0.1250         8.49
      0.1260         8.44
      0.1270         8.46
      0.1280         8.49
      0.1290         8.53
      0.1300         8.53
      0.1310         8.52
      0.1320         8.55
      0.1330         8.50
      0.1340         8.41
      0.1350         8.49
      0.1360         8.50
      0.1370         8.41
      0.1380         8.42
      0.1390         8.50
      0.1400         8.49
      0.1410         8.50
      0.1420         8.46
      0.1430         8.49
      0.1440         8.42
      0.1450         8.96
      0.1460         8.92
      0.1470         8.98
      0.1480         8.42
      0.1490         8.37
      0.1500         8.91
      0.1510         8.42
      0.1520         8.35
      0.1530         8.90
      0.1540         8.45
      0.1550         8.99
      0.1560         8.45
      0.1570         8.53
      0.1580         8.49
      0.1590         8.53
      0.1600         8.53
      0.1610         8.50
      0.1620         8.58
      0.1630         8.56
      0.1640         8.57
      0.1650         8.64
      0.1660         8.73
      0.1670         8.68
      0.1680         8.58
      0.1690         8.61
      0.1700         8.58
      0.1710         8.65
      0.1720         8.64
      0.1730         9.11
      0.1740         9.14
      0.1750         9.11
      0.1760         9.16
      0.1770         9.18
      0.1780         9.18
      0.1790         9.05
      0.1800         9.15
      0.1810         9.20
      0.1820         9.20
      0.1830         9.17
      0.1840         9.14
      0.1850         9.08
      0.1860         8.46
      0.1870         8.48
      0.1880         8.53
      0.1890         8.53
      0.1900         8.56
      0.1910         8.45
      0.1920         8.49
      0.1930         8.49
      0.1940         8.49
      0.1950         8.53
      0.1960         8.53
      0.1970         8.38
      0.1980         8.42
      0.1990         8.45
      0.2000         8.47
      0.2010         8.45
      0.2020         8.49
      0.2030         8.50
      0.2040         8.48
      0.2050         8.43
      0.2060         8.46
      0.2070         8.41
      0.2080         8.42
      0.2090         8.39
      0.2100         8.41
      0.2110         8.46
      0.2120         8.52
      0.2130         8.52
      0.2140         8.48
      0.2150         8.46
      0.2160         8.37
      0.2170         8.44
      0.2180         8.40
      0.2190         8.45
      0.2200         8.37
      0.2210         8.33
      0.2220         8.27
      0.2230         8.25
      0.2240         8.22
      0.2250         8.22
      0.2260         8.25
      0.2270         8.22
      0.2280         8.19
      0.2290         8.18
      0.2300         8.11
      0.2310         8.11
      0.2320         8.06
      0.2330         8.10
      0.2340         8.11
      0.2350         8.14
      0.2360         8.23
      0.2370         8.21
      0.2380         8.81
      0.2390         8.80
      0.2400         8.87
      0.2410         8.36
      0.2420         8.38
      0.2430         8.41
      0.2440         8.49
      0.2450         8.52
      0.2460         8.52
      0.2470         8.52
      0.2480         8.57
      0.2490         8.60
      0.2500         8.67
      0.2510         8.67
      0.2520         8.72
      0.2530         8.75
      0.2540         8.80
      0.2550         8.76
      0.2560         8.73
      0.2570         8.80
      0.2580         8.73
      0.2590         8.71
      0.2600         8.75
      0.2610         8.72
      0.2620         8.69
      0.2630         8.65
      0.2640         8.66
      0.2650         8.64
      0.2660         8.62
      0.2670         8.72
      0.2680         8.69
      0.2690         8.70
      0.2700         8.76
      0.2710         8.76
      0.2720         8.69
      0.2730         8.65
      0.2740         8.62
      0.2750         8.66
      0.2760         8.66
      0.2770         8.66
      0.2780         8.71
      0.2790         8.76
      0.2800         8.71
      0.2810         8.68
      0.2820         8.71
      0.2830         8.72
      0.2840         8.69
      0.2850         8.70
      0.2860         8.66
      0.2870         8.64
      0.2880         8.61
      0.2890         9.14
      0.2900         8.58
      0.2910         8.60
      0.2920         9.12
      0.2930         9.08
      0.2940         9.12
      0.2950         9.07
      0.2960         8.52
      0.2970         8.53
      0.2980         8.52
      0.2990         8.52
      0.3000         8.50
      0.3010         8.54
      0.3020         8.53
      0.3030         8.52
      0.3040         8.53
      0.3050         8.54
      0.3060         8.58
      0.3070         8.61
      0.3080         8.64
      0.3090         8.62
      0.3100         8.62
      0.3110         8.61
      0.3120         8.64
      0.3130         8.68
      0.3140         8.66
      0.3150         8.58
      0.3160         8.62
      0.3170         8.58
      0.3180         8.64
      0.3190         8.64
      0.3200         9.27
      0.3210         9.35
      0.3220         9.38
      0.3230         9.35
      0.3240         9.31
      0.3250         9.26
      0.3260         8.73
      0.3270         8.74
      0.3280         8.70
      0.3290         8.75
      0.3300         8.76
      0.3310         8.77
      0.3320         8.72
      0.3330         8.64
      0.3340         8.62
      0.3350         8.69
      0.3360         8.71
      0.3370         8.68
      0.3380         8.57
      0.3390         8.54
      0.3400         8.46
      0.3410         8.37
      0.3420         8.33
      0.3430         8.34
      0.3440         8.37
      0.3450         8.39
      0.3460         8.89
      0.3470         8.83
      0.3480         8.31
      0.3490         8.27
      0.3500         8.79
      0.3510         8.25
      0.3520         8.35
      0.3530         8.99
      0.3540         9.02
      0.3550         8.96
      0.3560         8.99
      0.3570         9.00
      0.3580         8.56
      0.3590         8.63
      0.3600         8.57
      0.3610         8.64
      0.3620         8.65
      0.3630         8.67
      0.3640         8.60
      0.3650         8.58
      0.3660         8.65
      0.3670         8.68
      0.3680         8.73
      0.3690         8.72
      0.3700         8.64
      0.3710         8.58
      0.3720         8.57
      0.3730         8.51
      0.3740         8.51
      0.3750         8.62
      0.3760         8.64
      0.3770         8.69
      0.3780         8.66
      0.3790         8.64
      0.3800         8.73
      0.3810         8.80
      0.3820         8.81
      0.3830         8.81
      0.3840         8.83
      0.3850         8.88
      0.3860         8.81
      0.3870         8.87
      0.3880         8.89
      0.3890         8.98
      0.3900         9.08
      0.3910         9.14
      0.3920         9.08
      0.3930         9.10
      0.3940         9.07
      0.3950         9.00
      0.3960         9.03
      0.3970         9.01
      0.3980         9.03
      0.3990         9.01
      0.4000         8.97
      0.4010         8.89
      0.4020         8.87
      0.4030         8.84
      0.4040         8.88
      0.4050         8.91
      0.4060         8.96
      0.4070         8.95
      0.4080         8.91
      0.4090         8.84
      0.4100         8.80
      0.4110         8.81
      0.4120         8.85
      0.4130         8.92
      0.4140         8.94
      0.4150         9.00
      0.4160         8.94
      0.4170         8.92
      0.4180         8.91
      0.4190         8.86
      0.4200         8.88
      0.4210         8.83
      0.4220         8.86
      0.4230         8.87
      0.4240         8.86
      0.4250         8.77
      0.4260         8.79
      0.4270         8.71
      0.4280         8.61
      0.4290         8.56
      0.4300         8.54
      0.4310         8.53
      0.4320         8.49
      0.4330         8.44
      0.4340         8.45
      0.4350         8.37
      0.4360         8.40
      0.4370         8.31
      0.4380         8.30
      0.4390         8.37
      0.4400         8.38
      0.4410         8.45
      0.4420         8.92
      0.4430         8.42
      0.4440         8.44
      0.4450         8.51
      0.4460         8.41
      0.4470         8.41
      0.4480         8.49
      0.4490         8.59
      0.4500         8.57
      0.4510         8.63
      0.4520         8.61
      0.4530         8.60
      0.4540         8.61
      0.4550         8.65
      0.4560         8.65
      0.4570         8.65
      0.4580         8.61
      0.4590         8.59
      0.4600         8.53
      0.4610         8.54
      0.4620         8.58
      0.4630         8.58
      0.4640         8.57
      0.4650         9.06
      0.4660         8.60
      0.4670         9.12
      0.4680         9.08
      0.4690         9.03
      0.4700         9.12
      0.4710         9.00
      0.4720         9.04
      0.4730         8.99
      0.4740         8.92
      0.4750         8.92
      0.4760         8.37
      0.4770         8.41
      0.4780         8.45
      0.4790         8.42
      0.4800         8.52
      0.4810         8.44
      0.4820         8.42
      0.4830         8.39
      0.4840         8.35
      0.4850         8.31
      0.4860         8.30
      0.4870         8.31
      0.4880         8.30
      0.4890         8.33
      0.4900         8.26
      0.4910         8.27
      0.4920         8.18
      0.4930         8.15
      0.4940         8.18
      0.4950         8.12
      0.4960         8.18
      0.4970         8.19
      0.4980         8.15
      0.4990         8.18
      0.5000         8.06
      0.5010         8.14
      0.5020         8.17
      0.5030         8.19
      0.5040         8.18
      0.5050         8.23
      0.5060         8.26
      0.5070         8.25
      0.5080         8.23
      0.5090         8.25
      0.5100         8.26
      0.5110         8.21
      0.5120         8.25
      0.5130         8.30
      0.5140         8.27
      0.5150         8.20
      0.5160         8.14
      0.5170         8.10
      0.5180         8.08
      0.5190         8.03
      0.5200         8.08
      0.5210         8.03
      0.5220         7.99
      0.5230         8.02
      0.5240         8.06
      0.5250         8.00
      0.5260         7.98
      0.5270         7.96
      0.5280         7.96
      0.5290         7.99
      0.5300         7.95
      0.5310         7.96
      0.5320         7.94
      0.5330         7.96
      0.5340         7.96
      0.5350         8.02
      0.5360         8.02
      0.5370         8.08
      0.5380         8.10
      0.5390         8.12
      0.5400         8.10
      0.5410         8.07
      0.5420         8.07
      0.5430         7.97
      0.5440         7.88
      0.5450         7.88
      0.5460         7.86
      0.5470         7.84
      0.5480         7.88
      0.5490         7.76
      0.5500         7.74
      0.5510         7.76
      0.5520         7.76
      0.5530         7.73
      0.5540         7.73
      0.5550         7.77
      0.5560         7.81
      0.5570         7.78
      0.5580         7.80
      0.5590         7.77
      0.5600         7.73
      0.5610         7.80
      0.5620         7.82
      0.5630         7.80
      0.5640         7.77
      0.5650         7.76
      0.5660         7.72
      0.5670         7.71
      0.5680         7.65
      0.5690         7.61
      0.5700         7.58
      0.5710         7.50
      0.5720         7.43
      0.5730         7.32
      0.5740         7.24
      0.5750         7.21
      0.5760         7.17
      0.5770         7.08
      0.5780         7.05
      0.5790         7.00
      0.5800         6.96
      0.5810         6.86
      0.5820         6.78
      0.5830         6.78
      0.5840         6.81
      0.5850         6.80
      0.5860         6.81
      0.5870         6.76
      0.5880         6.73
      0.5890         6.78
      0.5900         6.73
      0.5910         6.73
      0.5920         6.72
      0.5930         6.74
      0.5940         6.76
      0.5950         6.70
      0.5960         6.59
      0.5970         6.53
      0.5980         6.40
      0.5990         6.40
      0.6000         6.35
      0.6010         6.28
      0.6020         6.23
      0.6030         6.21
      0.6040         6.13
      0.6050         6.08
      0.6060         5.99
      0.6070         5.95
      0.6080         5.95
      0.6090         5.86
      0.6100         5.81
      0.6110         5.77
      0.6120         5.74
      0.6130         5.69
      0.6140         5.54
      0.6150         5.47
      0.6160         5.39
      0.6170         5.37
      0.6180         5.40
      0.6190         5.31
      0.6200         5.28
      0.6210         5.23
      0.6220         5.17
      0.6230         5.12
      0.6240         5.14
      0.6250         5.09
      0.6260         5.04
      0.6270         5.05
      0.6280         4.99
      0.6290         5.02
      0.6300         4.99
      0.6310         4.97
      0.6320         4.91
      0.6330         4.87
      0.6340         4.91
      0.6350         4.82
      0.6360         4.84
      0.6370         4.82
      0.6380         4.79
      0.6390         4.76
      0.6400         4.68
      0.6410         4.63
      0.6420         4.61
      0.6430         4.56
      0.6440         4.49
      0.6450         4.43
      0.6460         4.39
      0.6470         4.26
      0.6480         4.25
      0.6490         4.14
      0.6500         4.10
      0.6510         4.02
      0.6520         3.98
      0.6530         3.90
      0.6540         3.84
      0.6550         3.82
      0.6560         3.74
      0.6570         3.68
      0.6580         3.54
      0.6590         3.38
      0.6600         3.37
      0.6610         3.35
      0.6620         3.27
      0.6630         3.24
      0.6640         3.15
      0.6650         3.10
      0.6660         2.96
      0.6670         2.96
      0.6680         2.87
      0.6690         2.81
      0.6700         2.74
      0.6710         2.70
      0.6720         2.65
      0.6730         2.60
      0.6740         2.55
      0.6750         2.55
      0.6760         2.53
      0.6770         2.45
      0.6780         2.47
      0.6790         2.50
      0.6800         2.47
      0.6810         2.39
      0.6820         2.32
      0.6830         2.22
      0.6840         2.24
      0.6850         2.16
      0.6860         2.13
      0.6870         2.04
      0.6880         1.97
      0.6890         1.96
      0.6900         1.93
      0.6910         1.85
      0.6920         1.75
      0.6930         1.78
      0.6940         1.73
      0.6950         1.62
      0.6960         1.56
      0.6970         1.52
      0.6980         1.42
      0.6990         1.43
      0.7000         1.38
      0.7010         1.35
      0.7020         1.31
      0.7030         1.24
      0.7040         1.11
      0.7050         1.00
      0.7060         1.00
      0.7070         1.00
      0.7080         1.00
      0.7090         1.00
      0.7100         1.00
      0.7110         1.00
      0.7120         1.00
      0.7130         1.00
      0.7140         1.00
      0.7150         1.00
      0.7160         1.00
      0.7170         1.00
      0.7180         1.00
      0.7190         1.00
      0.7200         1.00
      0.7210         1.00
      0.7220         1.00
      0.7230         1.00
      0.7240         1.00
      0.7250         1.00
      0.7260         1.00
      0.7270         1.00
      0.7280         1.00
      0.7290         1.00
      0.7300         1.00
      0.7310         1.00
      0.7320         1.00
      0.7330         1.00
      0.7340         1.00
      0.7350         1.00
      0.7360         1.00
      0.7370         1.00
      0.7380         1.00
      0.7390         1.00
      0.7400         1.00
      0.7410         1.00
      0.7420         1.00
      0.7430         1.00
      0.7440         1.00
      0.7450         1.00
      0.7460         1.00
      0.7470         1.00
      0.7480         1.00
      0.7490         1.00
      0.7500         1.00
      0.7510         1.00
      0.7520         1.00
      0.7530         1.00
      0.7540         1.00
      0.7550         1.00
      0.7560         1.00
      0.7570         1.00
      0.7580         1.00
      0.7590         1.00
      0.7600         1.00
      0.7610         1.00
      0.7620         1.00
      0.7630         1.00
      0.7640         1.00
      0.7650         1.00
      0.7660         1.00
      0.7670         1.00
