        Time   Palpation Force
      0.0000         1.00
      0.0010         1.00
      0.0020         2.15
      0.0030         2.99
      0.0040         3.75
      0.0050         4.47
      0.0060         5.27
      0.0070         6.57
      0.0080         7.41
      0.0090         8.21
      0.0100         9.01
      0.0110         9.85
      0.0120        10.66
      0.0130        11.56
      0.0140        12.45
      0.0150        13.29
      0.0160        14.14
      0.0170        15.02
      0.0180        15.76
      0.0190        17.12
      0.0200        17.17
      0.0210        17.17
      0.0220        17.31
      0.0230        17.26
      0.0240        17.19
      0.0250        17.23
      0.0260        17.20
      0.0270        17.09
      0.0280        17.04
      0.0290        17.05
      0.0300        17.12
      0.0310        17.03
      0.0320        16.95
      0.0330        16.92
      0.0340        16.77
      0.0350        16.81
      0.0360        16.76
      0.0370        16.72
      0.0380        16.82
      0.0390        16.72
      0.0400        16.83
      0.0410        16.75
      0.0420        16.21
      0.0430        16.64
      0.0440        16.64
      0.0450        16.58
      0.0460        16.65
      0.0470        16.78
      0.0480        16.83
      0.0490        16.90
      0.0500        16.90
      0.0510        16.97
      0.0520        17.08
      0.0530        16.96
      0.0540        17.08
      0.0550        16.94
      0.0560        16.88
      0.0570        16.89
      0.0580        16.81
      0.0590        17.01
      0.0600        16.88
      0.0610        16.95
      0.0620        16.95
      0.0630        17.01
      0.0640        17.05
      0.0650        17.10
      0.0660        17.06
      0.0670        17.05
      0.0680        17.01
      0.0690        16.94
      0.0700        16.97
      0.0710        17.01
      0.0720        16.96
      0.0730        17.03
      0.0740        16.94
      0.0750        17.00
      0.0760        17.14
      0.0770        17.05
      0.0780        17.15
      0.0790        16.96
      0.0800        17.07
      0.0810        17.07
      0.0820        17.03
      0.0830        17.00
      0.0840        17.01
      0.0850        16.95
      0.0860        16.99
      0.0870        16.95
      0.0880        17.04
      0.0890        17.04
      0.0900        16.96
      0.0910        16.93
      0.0920        16.95
      0.0930        16.91
      0.0940        16.93
      0.0950        16.85
      0.0960        16.69
      0.0970        16.80
      0.0980        16.80
      0.0990        16.84
      0.1000        16.77
      0.1010        16.81
      0.1020        16.88
      0.1030        16.85
      0.1040        16.78
      0.1050        16.23
      0.1060        16.19
      0.1070        16.24
      0.1080        16.23
      0.1090        16.21
      0.1100        16.30
      0.1110        16.28
      0.1120        16.28
      0.1130        16.27
      0.1140        16.28
      0.1150        16.31
      0.1160        16.35
      0.1170        16.35
      0.1180        16.28
      0.1190        16.22
      0.1200        16.23
      0.1210        16.07
      0.1220        16.01
      0.1230        15.97
      0.1240        16.02
      0.1250        16.56
      0.1260        16.52
      0.1270        16.51
      0.1280        16.56
      0.1290        16.55
      0.1300        16.56
      0.1310        16.45
      0.1320        16.46
      0.1330        16.49
      0.1340        16.42
      0.1350        16.45
      0.1360        16.42
      0.1370        16.38
      0.1380        16.43
      0.1390        16.50
      0.1400        16.46
      0.1410        16.57
      0.1420        16.63
      0.1430        16.73
      0.1440        16.76
      0.1450        16.89
      0.1460        16.85
      0.1470        16.84
      0.1480        16.74
      0.1490        16.72
      0.1500        16.66
      0.1510        16.84
      0.1520        16.84
      0.1530        16.83
      0.1540        16.92
      0.1550        16.99
      0.1560        17.01
      0.1570        16.93
      0.1580        16.84
      0.1590        16.77
      0.1600        16.77
      0.1610        16.84
      0.1620        16.77
      0.1630        16.73
      0.1640        16.74
      0.1650        16.82
      0.1660        16.96
      0.1670        16.96
      0.1680        16.94
      0.1690        16.98
      0.1700        17.02
      0.1710        16.93
      0.1720        16.89
      0.1730        16.90
      0.1740        16.89
      0.1750        16.84
      0.1760        16.80
      0.1770        17.00
      0.1780        17.08
      0.1790        17.08
      0.1800        17.08
      0.1810        17.00
      0.1820        16.99
      0.1830        16.88
      0.1840        16.78
      0.1850        16.64
      0.1860        16.48
      0.1870        16.37
      0.1880        16.40
      0.1890        16.37
      0.1900        16.37
      0.1910        16.33
      0.1920        15.93
      0.1930        16.30
      0.1940        15.85
      0.1950        15.82
      0.1960        16.30
      0.1970        16.21
      0.1980        16.12
      0.1990        16.14
      0.2000        16.09
      0.2010        16.14
      0.2020        15.61
      0.2030        16.14
      0.2040        16.06
      0.2050        15.54
      0.2060        15.57
      0.2070        15.69
      0.2080        15.77
      0.2090        15.77
      0.2100        15.79
      0.2110        15.69
      0.2120        15.60
      0.2130        15.70
      0.2140        16.14
      0.2150        16.14
      0.2160        16.16
      0.2170        16.18
      0.2180        15.75
      0.2190        16.25
      0.2200        16.27
      0.2210        16.29
      0.2220        16.30
      0.2230        16.29
      0.2240        16.41
      0.2250        16.45
      0.2260        16.55
      0.2270        16.66
      0.2280        16.62
      0.2290        16.62
      0.2300        16.61
      0.2310        16.65
      0.2320        16.72
      0.2330        16.66
      0.2340        16.76
      0.2350        16.87
      0.2360        16.93
      0.2370        16.93
      0.2380        17.08
      0.2390        17.02
      0.2400        17.00
      0.2410        16.94
      0.2420        16.96
      0.2430        17.10
      0.2440        17.08
      0.2450        17.08
      0.2460        17.04
      0.2470        17.00
      0.2480        17.01
      0.2490        17.16
      0.2500        17.12
      0.2510        17.21
      0.2520        17.09
      0.2530        17.14
      0.2540        17.02
      0.2550        17.01
      0.2560        17.05
      0.2570        17.16
      0.2580        17.05
      0.2590        17.06
      0.2600        17.14
      0.2610        17.17
      0.2620        17.21
      0.2630        17.17
      0.2640        17.24
      0.2650        17.24
      0.2660        17.25
      0.2670        17.16
      0.2680        17.08
      0.2690        16.95
      0.2700        17.00
      0.2710        16.95
      0.2720        17.08
      0.2730        17.09
      0.2740        17.14
      0.2750        17.12
      0.2760        17.04
      0.2770        17.01
      0.2780        17.07
      0.2790        17.17
      0.2800        17.09
      0.2810        17.05
      0.2820        17.06
      0.2830        17.02
      0.2840        16.93
      0.2850        16.91
      0.2860        16.47
      0.2870        17.02
      0.2880        17.06
      0.2890        17.09
      0.2900        17.05
      0.2910        17.13
      0.2920        17.05
      0.2930        17.01
      0.2940        17.00
      0.2950        17.00
      0.2960        17.03
      0.2970        17.03
      0.2980        16.96
      0.2990        16.88
      0.3000        16.94
      0.3010        17.02
      0.3020        16.99
      0.3030        16.96
      0.3040        16.95
      0.3050        16.92
      0.3060        16.92
      0.3070        16.91
      0.3080        16.91
      0.3090        16.89
      0.3100        16.96
      0.3110        16.95
      0.3120        16.97
      0.3130        16.96
      0.3140        16.96
      0.3150        16.95
      0.3160        16.92
      0.3170        16.91
      0.3180        16.88
      0.3190        16.85
      0.3200        16.81
      0.3210        16.78
      0.3220        16.79
      0.3230        16.84
      0.3240        16.91
      0.3250        16.94
      0.3260        16.88
      0.3270        16.93
      0.3280        16.95
      0.3290        16.93
      0.3300        16.94
      0.3310        16.93
      0.3320        16.94
      0.3330        16.90
      0.3340        16.90
      0.3350        16.91
      0.3360        16.88
      0.3370        16.75
      0.3380        16.26
      0.3390        16.81
      0.3400        16.88
      0.3410        16.94
      0.3420        17.00
      0.3430        16.89
      0.3440        16.92
      0.3450        16.90
      0.3460        16.93
      0.3470        16.92
      0.3480        16.88
      0.3490        16.96
      0.3500        16.85
      0.3510        16.88
      0.3520        16.93
      0.3530        17.03
      0.3540        17.04
      0.3550        16.91
      0.3560        16.88
      0.3570        16.93
      0.3580        16.91
      0.3590        16.82
      0.3600        16.78
      0.3610        16.70
      0.3620        16.60
      0.3630        16.72
      0.3640        16.68
      0.3650        16.78
      0.3660        16.75
      0.3670        16.76
      0.3680        16.72
      0.3690        16.75
      0.3700        16.35
      0.3710        16.27
      0.3720        16.27
      0.3730        16.20
      0.3740        16.69
      0.3750        16.79
      0.3760        16.89
      0.3770        16.47
      0.3780        17.00
      0.3790        16.58
      0.3800        16.63
      0.3810        17.21
      0.3820        17.29
      0.3830        17.24
      0.3840        16.77
      0.3850        16.73
      0.3860        17.29
      0.3870        17.30
      0.3880        17.40
      0.3890        17.30
      0.3900        17.38
      0.3910        17.46
      0.3920        17.42
      0.3930        17.49
      0.3940        17.42
      0.3950        17.41
      0.3960        17.30
      0.3970        16.84
      0.3980        16.81
      0.3990        17.30
      0.4000        17.33
      0.4010        17.33
      0.4020        17.30
      0.4030        17.36
      0.4040        17.36
      0.4050        17.36
      0.4060        16.78
      0.4070        16.74
      0.4080        16.81
      0.4090        16.86
      0.4100        16.77
      0.4110        16.72
      0.4120        16.62
      0.4130        16.65
      0.4140        16.68
      0.4150        16.64
      0.4160        17.12
      0.4170        17.02
      0.4180        17.01
      0.4190        16.99
      0.4200        16.98
      0.4210        16.94
      0.4220        16.94
      0.4230        16.95
      0.4240        16.98
      0.4250        17.06
      0.4260        17.12
      0.4270        17.14
      0.4280        17.11
      0.4290        17.04
      0.4300        17.08
      0.4310        17.12
      0.4320        17.23
      0.4330        17.20
      0.4340        17.24
      0.4350        17.32
      0.4360        17.38
      0.4370        17.46
      0.4380        17.48
      0.4390        17.42
      0.4400        17.36
      0.4410        17.34
      0.4420        17.30
      0.4430        17.28
      0.4440        17.20
      0.4450        17.16
      0.4460        17.11
      0.4470        17.21
      0.4480        17.22
      0.4490        17.19
      0.4500        17.22
      0.4510        17.19
      0.4520        17.18
      0.4530        17.16
      0.4540        17.22
      0.4550        17.24
      0.4560        17.21
      0.4570        17.27
      0.4580        17.35
      0.4590        17.54
      0.4600        17.60
      0.4610        17.56
      0.4620        17.67
      0.4630        17.68
      0.4640        17.70
      0.4650        17.63
      0.4660        17.63
      0.4670        17.54
      0.4680        17.51
      0.4690        17.53
      0.4700        17.47
      0.4710        17.54
      0.4720        17.50
      0.4730        17.43
      0.4740        17.23
      0.4750        17.22
      0.4760        17.23
      0.4770        17.10
      0.4780        17.09
      0.4790        16.95
      0.4800        17.01
      0.4810        17.08
      0.4820        17.02
      0.4830        16.47
      0.4840        16.49
      0.4850        17.10
      0.4860        17.20
      0.4870        17.20
      0.4880        17.21
      0.4890        17.27
      0.4900        17.28
      0.4910        17.24
      0.4920        17.27
      0.4930        17.31
      0.4940        17.46
      0.4950        17.38
      0.4960        17.38
      0.4970        17.47
      0.4980        17.42
      0.4990        17.41
      0.5000        17.26
      0.5010        17.19
      0.5020        17.17
      0.5030        17.17
      0.5040        17.21
      0.5050        17.05
      0.5060        16.95
      0.5070        16.94
      0.5080        16.91
      0.5090        16.95
      0.5100        16.92
      0.5110        16.96
      0.5120        17.07
      0.5130        17.07
      0.5140        17.19
      0.5150        17.39
      0.5160        17.43
      0.5170        17.41
      0.5180        17.48
      0.5190        17.51
      0.5200        17.60
      0.5210        17.68
      0.5220        17.74
      0.5230        17.80
      0.5240        17.78
      0.5250        17.82
      0.5260        17.82
      0.5270        17.86
      0.5280        17.94
      0.5290        17.89
      0.5300        17.93
      0.5310        17.83
      0.5320        17.74
      0.5330        17.84
      0.5340        17.70
      0.5350        17.69
      0.5360        17.61
      0.5370        17.70
      0.5380        17.78
      0.5390        17.77
      0.5400        17.76
      0.5410        17.69
      0.5420        17.69
      0.5430        17.74
      0.5440        17.69
      0.5450        17.74
      0.5460        17.75
      0.5470        17.74
      0.5480        17.65
      0.5490        17.65
      0.5500        17.62
      0.5510        17.69
      0.5520        17.70
      0.5530        17.67
      0.5540        17.74
      0.5550        17.55
      0.5560        17.59
      0.5570        17.46
      0.5580        17.31
      0.5590        17.27
      0.5600        17.31
      0.5610        17.39
      0.5620        17.34
      0.5630        17.22
      0.5640        17.26
      0.5650        17.30
      0.5660        17.30
      0.5670        17.29
      0.5680        17.33
      0.5690        17.36
      0.5700        17.42
      0.5710        17.42
      0.5720        17.43
      0.5730        17.35
      0.5740        17.27
      0.5750        17.37
      0.5760        17.38
      0.5770        17.42
      0.5780        17.53
      0.5790        17.60
      0.5800        17.57
      0.5810        17.48
      0.5820        17.57
      0.5830        17.62
      0.5840        17.64
      0.5850        17.64
      0.5860        17.70
      0.5870        17.77
      0.5880        17.73
      0.5890        17.79
      0.5900        17.81
      0.5910        17.75
      0.5920        17.65
      0.5930        17.76
      0.5940        17.83
      0.5950        17.81
      0.5960        17.83
      0.5970        17.77
      0.5980        17.73
      0.5990        17.80
      0.6000        17.77
      0.6010        17.81
      0.6020        17.76
      0.6030        17.74
      0.6040        17.71
      0.6050        17.71
      0.6060        17.74
      0.6070        17.70
      0.6080        17.71
      0.6090        17.60
      0.6100        17.52
      0.6110        17.59
      0.6120        17.66
      0.6130        17.55
      0.6140        17.61
      0.6150        17.58
      0.6160        17.50
      0.6170        17.53
      0.6180        17.58
      0.6190        17.57
      0.6200        17.53
      0.6210        17.49
      0.6220        17.46
      0.6230        17.47
      0.6240        17.52
      0.6250        17.47
      0.6260        17.44
      0.6270        17.44
      0.6280        17.52
      0.6290        17.57
      0.6300        17.57
      0.6310        17.50
      0.6320        17.54
      0.6330        17.60
      0.6340        17.55
      0.6350        17.50
      0.6360        17.51
      0.6370        17.55
      0.6380        17.47
      0.6390        17.50
      0.6400        17.54
      0.6410        17.61
      0.6420        17.62
      0.6430        17.66
      0.6440        17.59
      0.6450        17.66
      0.6460        17.63
      0.6470        17.59
      0.6480        17.55
      0.6490        17.45
      0.6500        17.54
      0.6510        17.58
      0.6520        17.57
      0.6530        17.53
      0.6540        17.44
      0.6550        17.54
      0.6560        17.54
      0.6570        17.49
      0.6580        17.36
      0.6590        17.33
      0.6600        17.28
      0.6610        17.30
      0.6620        17.34
      0.6630        17.28
      0.6640        17.32
      0.6650        16.83
      0.6660        16.85
      0.6670        16.89
      0.6680        16.94
      0.6690        17.55
      0.6700        17.56
      0.6710        17.58
      0.6720        17.59
      0.6730        17.65
      0.6740        17.66
      0.6750        17.65
      0.6760        17.66
      0.6770        17.77
      0.6780        17.94
      0.6790        17.97
      0.6800        17.89
      0.6810        17.89
      0.6820        17.85
      0.6830        17.91
      0.6840        17.88
      0.6850        17.87
      0.6860        17.80
      0.6870        17.82
      0.6880        17.76
      0.6890        17.65
      0.6900        17.60
      0.6910        17.62
      0.6920        17.61
      0.6930        17.53
      0.6940        17.58
      0.6950        17.58
      0.6960        17.58
      0.6970        17.52
      0.6980        17.55
      0.6990        17.46
      0.7000        17.56
      0.7010        17.51
      0.7020        17.52
      0.7030        17.47
      0.7040        17.55
      0.7050        17.58
      0.7060        17.65
      0.7070        17.68
      0.7080        17.69
      0.7090        17.81
      0.7100        17.81
      0.7110        17.76
      0.7120        17.70
      0.7130        17.77
      0.7140        17.80
      0.7150        17.79
      0.7160        17.84
      0.7170        17.85
      0.7180        17.76
      0.7190        17.78
      0.7200        17.77
      0.7210        17.74
      0.7220        17.76
      0.7230        17.78
      0.7240        17.73
      0.7250        17.65
      0.7260        17.54
      0.7270        17.50
      0.7280        17.47
      0.7290        17.39
      0.7300        17.42
      0.7310        17.45
      0.7320        17.50
      0.7330        17.45
      0.7340        17.47
      0.7350        17.44
      0.7360        17.37
      0.7370        17.32
      0.7380        17.37
      0.7390        17.37
      0.7400        17.32
      0.7410        17.34
      0.7420        17.38
      0.7430        17.42
      0.7440        17.42
      0.7450        17.48
      0.7460        17.58
      0.7470        17.61
      0.7480        17.68
      0.7490        17.77
      0.7500        17.72
      0.7510        17.72
      0.7520        17.62
      0.7530        17.68
      0.7540        17.65
      0.7550        17.68
      0.7560        17.74
      0.7570        17.88
      0.7580        17.82
      0.7590        17.77
      0.7600        17.76
      0.7610        17.83
      0.7620        17.79
      0.7630        17.71
      0.7640        17.75
      0.7650        17.79
      0.7660        17.65
      0.7670        17.63
