        Time   Palpation Force
      0.0000         1.00
      0.0010         1.00
      0.0020         1.00
      0.0030         1.32
      0.0040         1.62
      0.0050         1.93
      0.0060         2.87
      0.0070         3.28
      0.0080         4.21
      0.0090         4.75
      0.0100         5.27
      0.0110         5.83
      0.0120         6.37
      0.0130         6.80
      0.0140         7.25
      0.0150         7.69
      0.0160         8.19
      0.0170         8.64
      0.0180         9.08
      0.0190         9.58
      0.0200         9.54
      0.0210         9.63
      0.0220         9.67
      0.0230         9.62
      0.0240         9.71
      0.0250         9.75
      0.0260         9.74
      0.0270         9.78
      0.0280         9.92
      0.0290         9.95
      0.0300        10.03
      0.0310        10.02
      0.0320         9.99
      0.0330        10.07
      0.0340        10.12
      0.0350        10.13
      0.0360        10.07
      0.0370        10.26
      0.0380        10.40
      0.0390        10.36
      0.0400        10.47
      0.0410        10.48
      0.0420        10.62
      0.0430        10.69
      0.0440        10.79
      0.0450        10.85
      0.0460        10.87
      0.0470        11.02
      0.0480        10.90
      0.0490        10.86
      0.0500        10.88
      0.0510        10.96
      0.0520        10.96
      0.0530        10.97
      0.0540        11.03
      0.0550        11.10
      0.0560        11.19
      0.0570        11.12
      0.0580        11.05
      0.0590        11.16
      0.0600        11.10
      0.0610        11.18
      0.0620        11.16
      0.0630        11.26
      0.0640        11.20
      0.0650        11.20
      0.0660        11.27
      0.0670        11.27
      0.0680        11.32
      0.0690        11.25
      0.0700        11.24
      0.0710        11.17
      0.0720        11.28
      0.0730        11.34
      0.0740        11.42
      0.0750        11.47
      0.0760        11.47
      0.0770        11.43
      0.0780        11.59
      0.0790        11.63
      0.0800        11.70
      0.0810        11.69
      0.0820        11.70
      0.0830        11.70
      0.0840        11.75
      0.0850        11.79
      0.0860        11.84
      0.0870        11.88
      0.0880        11.92
      0.0890        12.10
      0.0900        12.05
      0.0910        12.11
      0.0920        12.08
      0.0930        12.09
      0.0940        12.08
      0.0950        12.08
      0.0960        12.22
      0.0970        12.26
      0.0980        12.15
      0.0990        12.11
      0.1000        12.16
      0.1010        12.11
      0.1020        12.12
      0.1030        12.13
      0.1040        12.07
      0.1050        12.13
      0.1060        12.18
      0.1070        12.14
      0.1080        12.15
      0.1090        12.12
      0.1100        12.14
      0.1110        12.06
      0.1120        12.05
      0.1130        12.08
      0.1140        12.06
      0.1150        12.16
      0.1160        12.19
      0.1170        12.32
      0.1180        12.34
      0.1190        12.38
      0.1200        12.42
      0.1210        12.54
      0.1220        12.53
      0.1230        12.65
      0.1240        12.71
      0.1250        12.65
      0.1260        12.60
      0.1270        12.50
      0.1280        12.59
      0.1290        12.71
      0.1300        12.69
      0.1310        12.85
      0.1320        12.88
      0.1330        12.87
      0.1340        12.90
      0.1350        12.87
      0.1360        12.92
      0.1370        12.84
      0.1380        12.79
      0.1390        12.92
      0.1400        12.88
      0.1410        12.87
      0.1420        13.03
      0.1430        12.91
      0.1440        12.93
      0.1450        12.96
      0.1460        12.92
      0.1470        13.00
      0.1480        13.00
      0.1490        13.01
      0.1500        13.13
      0.1510        13.11
      0.1520        13.21
      0.1530        13.24
      0.1540        13.25
      0.1550        13.25
      0.1560        13.17
      0.1570        13.20
      0.1580        13.39
      0.1590        13.29
      0.1600        13.33
      0.1610        13.27
      0.1620        13.16
      0.1630        13.20
      0.1640        13.24
      0.1650        13.27
      0.1660        13.28
      0.1670        13.46
      0.1680        13.56
      0.1690        13.51
      0.1700        13.50
      0.1710        13.43
      0.1720        13.48
      0.1730        13.57
      0.1740        13.61
      0.1750        13.64
      0.1760        13.68
      0.1770        13.67
      0.1780        13.60
      0.1790        13.59
      0.1800        13.57
      0.1810        13.65
      0.1820        13.74
      0.1830        13.82
      0.1840        13.90
      0.1850        13.96
      0.1860        13.91
      0.1870        13.79
      0.1880        13.67
      0.1890        13.65
      0.1900        13.69
      0.1910        13.84
      0.1920        13.73
      0.1930        13.74
      0.1940        13.68
      0.1950        13.64
      0.1960        13.71
      0.1970        13.76
      0.1980        13.80
      0.1990        13.82
      0.2000        13.84
      0.2010        13.86
      0.2020        13.84
      0.2030        13.88
      0.2040        13.88
      0.2050        13.83
      0.2060        13.91
      0.2070        13.88
      0.2080        13.94
      0.2090        13.97
      0.2100        13.85
      0.2110        13.84
      0.2120        13.82
      0.2130        13.84
      0.2140        13.91
      0.2150        13.95
      0.2160        13.89
      0.2170        13.95
      0.2180        13.96
      0.2190        13.94
      0.2200        13.87
      0.2210        13.84
      0.2220        13.78
      0.2230        13.70
      0.2240        13.62
      0.2250        13.67
      0.2260        13.59
      0.2270        13.64
      0.2280        13.59
      0.2290        13.66
      0.2300        13.70
      0.2310        13.69
      0.2320        13.67
      0.2330        13.50
      0.2340        13.47
      0.2350        13.47
      0.2360        13.50
      0.2370        13.51
      0.2380        13.44
      0.2390        13.44
      0.2400        13.52
      0.2410        13.60
      0.2420        13.65
      0.2430        13.61
      0.2440        13.56
      0.2450        13.53
      0.2460        13.71
      0.2470        13.71
      0.2480        13.74
      0.2490        13.68
      0.2500        13.76
      0.2510        13.71
      0.2520        13.72
      0.2530        13.87
      0.2540        13.90
      0.2550        13.84
      0.2560        13.76
      0.2570        13.67
      0.2580        13.75
      0.2590        13.83
      0.2600        13.74
      0.2610        13.70
      0.2620        13.65
      0.2630        13.63
      0.2640        13.71
      0.2650        13.64
      0.2660        13.62
      0.2670        13.60
      0.2680        13.60
      0.2690        13.57
      0.2700        13.56
      0.2710        13.57
      0.2720        13.57
      0.2730        13.51
      0.2740        13.43
      0.2750        13.44
      0.2760        13.52
      0.2770        13.53
      0.2780        13.52
      0.2790        13.55
      0.2800        13.64
      0.2810        13.62
      0.2820        13.67
      0.2830        13.75
      0.2840        13.67
      0.2850        13.76
      0.2860        13.64
      0.2870        13.66
      0.2880        13.62
      0.2890        13.64
      0.2900        13.51
      0.2910        13.52
      0.2920        13.57
      0.2930        13.60
      0.2940        13.64
      0.2950        13.71
      0.2960        13.68
      0.2970        13.68
      0.2980        13.67
      0.2990        13.57
      0.3000        13.64
      0.3010        13.55
      0.3020        13.54
      0.3030        13.54
      0.3040        13.63
      0.3050        13.59
      0.3060        13.59
      0.3070        13.56
      0.3080        13.54
      0.3090        13.56
      0.3100        13.59
      0.3110        13.54
      0.3120        13.51
      0.3130        13.58
      0.3140        13.48
      0.3150        13.48
      0.3160        13.44
      0.3170        13.44
      0.3180        13.41
      0.3190        13.43
      0.3200        13.33
      0.3210        13.40
      0.3220        13.34
      0.3230        13.32
      0.3240        13.32
      0.3250        13.30
      0.3260        13.41
      0.3270        13.38
      0.3280        13.37
      0.3290        13.33
      0.3300        13.49
      0.3310        13.53
      0.3320        13.53
      0.3330        13.51
      0.3340        13.51
      0.3350        13.46
      0.3360        13.52
      0.3370        13.51
      0.3380        13.51
      0.3390        13.58
      0.3400        13.54
      0.3410        13.55
      0.3420        13.52
      0.3430        13.51
      0.3440        13.44
      0.3450        13.46
      0.3460        13.42
      0.3470        13.50
      0.3480        13.58
      0.3490        13.52
      0.3500        13.47
      0.3510        13.40
      0.3520        13.49
      0.3530        13.44
      0.3540        13.56
      0.3550        13.55
      0.3560        13.45
      0.3570        13.45
      0.3580        13.52
      0.3590        13.55
      0.3600        13.62
      0.3610        13.65
      0.3620        13.75
      0.3630        13.76
      0.3640        13.72
      0.3650        13.69
      0.3660        13.68
      0.3670        13.58
      0.3680        13.54
      0.3690        13.54
      0.3700        13.49
      0.3710        13.64
      0.3720        13.56
      0.3730        13.58
      0.3740        13.62
      0.3750        13.70
      0.3760        13.72
      0.3770        13.73
      0.3780        13.71
      0.3790        13.55
      0.3800        13.59
      0.3810        13.55
      0.3820        13.38
      0.3830        13.38
      0.3840        13.50
      0.3850        13.59
      0.3860        13.64
      0.3870        13.68
      0.3880        13.67
      0.3890        13.67
      0.3900        13.71
      0.3910        13.59
      0.3920        13.60
      0.3930        13.68
      0.3940        13.59
      0.3950        13.57
      0.3960        13.51
      0.3970        13.44
      0.3980        13.31
      0.3990        13.49
      0.4000        13.44
      0.4010        13.39
      0.4020        13.48
      0.4030        13.47
      0.4040        13.42
      0.4050        13.35
      0.4060        13.28
      0.4070        13.24
      0.4080        13.32
      0.4090        13.36
      0.4100        13.33
      0.4110        13.44
      0.4120        13.39
      0.4130        13.29
      0.4140        13.33
      0.4150        13.28
      0.4160        13.28
      0.4170        13.32
      0.4180        13.33
      0.4190        13.25
      0.4200        13.19
      0.4210        13.27
      0.4220        13.24
      0.4230        13.30
      0.4240        13.26
      0.4250        13.19
      0.4260        13.20
      0.4270        13.23
      0.4280        13.18
      0.4290        13.12
      0.4300        13.11
      0.4310        13.03
      0.4320        13.10
      0.4330        13.10
      0.4340        13.10
      0.4350        13.14
      0.4360        13.17
      0.4370        13.19
      0.4380        13.21
      0.4390        13.27
      0.4400        13.28
      0.4410        13.18
      0.4420        13.20
      0.4430        13.25
      0.4440        13.28
      0.4450        13.30
      0.4460        13.30
      0.4470        13.36
      0.4480        13.32
      0.4490        13.29
      0.4500        13.27
      0.4510        13.25
      0.4520        13.19
      0.4530        13.11
      0.4540        13.08
      0.4550        13.07
      0.4560        13.00
      0.4570        13.00
      0.4580        12.97
      0.4590        12.87
      0.4600        12.94
      0.4610        12.96
      0.4620        13.00
      0.4630        12.92
      0.4640        12.92
      0.4650        12.96
      0.4660        12.95
      0.4670        12.93
      0.4680        12.97
      0.4690        13.08
      0.4700        13.09
      0.4710        13.11
      0.4720        13.15
      0.4730        13.25
      0.4740        13.28
      0.4750        13.21
      0.4760        13.27
      0.4770        13.25
      0.4780        13.29
      0.4790        13.29
      0.4800        13.25
      0.4810        13.21
      0.4820        13.13
      0.4830        13.05
      0.4840        12.97
      0.4850        12.97
      0.4860        13.04
      0.4870        13.00
      0.4880        13.00
      0.4890        12.99
      0.4900        13.03
      0.4910        13.04
      0.4920        12.95
      0.4930        12.96
      0.4940        12.92
      0.4950        12.91
      0.4960        12.83
      0.4970        12.77
      0.4980        12.74
      0.4990        12.74
      0.5000        12.77
      0.5010        12.85
      0.5020        12.93
      0.5030        12.94
      0.5040        12.96
      0.5050        12.88
      0.5060        12.82
      0.5070        12.80
      0.5080        12.76
      0.5090        12.66
      0.5100        12.60
      0.5110        12.53
      0.5120        12.60
      0.5130        12.52
      0.5140        12.49
      0.5150        12.53
      0.5160        12.62
      0.5170        12.72
      0.5180        12.76
      0.5190        12.80
      0.5200        12.76
      0.5210        12.78
      0.5220        12.69
      0.5230        12.69
      0.5240        12.71
      0.5250        12.79
      0.5260        12.82
      0.5270        12.81
      0.5280        12.78
      0.5290        12.90
      0.5300        12.95
      0.5310        13.09
      0.5320        13.02
      0.5330        12.99
      0.5340        12.95
      0.5350        12.95
      0.5360        12.93
      0.5370        12.90
      0.5380        12.77
      0.5390        12.74
      0.5400        12.62
      0.5410        12.58
      0.5420        12.57
      0.5430        12.49
      0.5440        12.58
      0.5450        12.54
      0.5460        12.45
      0.5470        12.45
      0.5480        12.54
      0.5490        12.49
      0.5500        12.46
      0.5510        12.27
      0.5520        12.34
      0.5530        12.39
      0.5540        12.42
      0.5550        12.50
      0.5560        12.50
      0.5570        12.51
      0.5580        12.59
      0.5590        12.59
      0.5600        12.75
      0.5610        12.74
      0.5620        12.72
      0.5630        12.85
      0.5640        12.77
      0.5650        12.74
      0.5660        12.78
      0.5670        12.72
      0.5680        12.70
      0.5690        12.66
      0.5700        12.66
      0.5710        12.81
      0.5720        12.79
      0.5730        12.84
      0.5740        12.88
      0.5750        12.82
      0.5760        12.82
      0.5770        12.78
      0.5780        12.75
      0.5790        12.72
      0.5800        12.71
      0.5810        12.71
      0.5820        12.76
      0.5830        12.68
      0.5840        12.65
      0.5850        12.70
      0.5860        12.60
      0.5870        12.67
      0.5880        12.57
      0.5890        12.49
      0.5900        12.42
      0.5910        12.30
      0.5920        12.35
      0.5930        12.22
      0.5940        12.12
      0.5950        12.03
      0.5960        11.95
      0.5970        11.87
      0.5980        11.86
      0.5990        11.73
      0.6000        11.67
      0.6010        11.49
      0.6020        11.41
      0.6030        11.45
      0.6040        11.43
      0.6050        11.28
      0.6060        11.22
      0.6070        11.13
      0.6080        11.06
      0.6090        11.10
      0.6100        11.01
      0.6110        10.95
      0.6120        10.74
      0.6130        10.70
      0.6140        10.70
      0.6150        10.59
      0.6160        10.52
      0.6170        10.40
      0.6180        10.23
      0.6190        10.22
      0.6200        10.15
      0.6210        10.11
      0.6220        10.03
      0.6230         9.89
      0.6240         9.77
      0.6250         9.67
      0.6260         9.63
      0.6270         9.44
      0.6280         9.23
      0.6290         9.03
      0.6300         8.93
      0.6310         8.70
      0.6320         8.64
      0.6330         8.46
      0.6340         8.26
      0.6350         8.13
      0.6360         8.03
      0.6370         8.02
      0.6380         7.92
      0.6390         7.80
      0.6400         7.61
      0.6410         7.52
      0.6420         7.26
      0.6430         7.08
      0.6440         7.02
      0.6450         6.85
      0.6460         6.70
      0.6470         6.66
      0.6480         6.66
      0.6490         6.55
      0.6500         6.39
      0.6510         6.32
      0.6520         6.23
      0.6530         6.05
      0.6540         5.93
      0.6550         5.87
      0.6560         5.61
      0.6570         5.38
      0.6580         5.34
      0.6590         5.17
      0.6600         5.12
      0.6610         4.99
      0.6620         5.03
      0.6630         4.91
      0.6640         4.74
      0.6650         4.74
      0.6660         4.62
      0.6670         4.44
      0.6680         4.25
      0.6690         4.08
      0.6700         4.08
      0.6710         4.00
      0.6720         3.82
      0.6730         3.83
      0.6740         3.70
      0.6750         3.65
      0.6760         3.63
      0.6770         3.61
      0.6780         3.45
      0.6790         3.39
      0.6800         3.23
      0.6810         3.18
      0.6820         2.50
      0.6830         2.55
      0.6840         2.45
      0.6850         2.40
      0.6860         2.36
      0.6870         2.33
      0.6880         2.30
      0.6890         2.21
      0.6900         2.08
      0.6910         1.51
      0.6920         1.51
      0.6930         1.46
      0.6940         1.44
      0.6950         1.36
      0.6960         1.36
      0.6970         1.31
      0.6980         1.25
      0.6990         1.19
      0.7000         1.00
      0.7010         1.00
      0.7020         1.00
      0.7030         1.00
      0.7040         1.00
      0.7050         1.00
      0.7060         1.00
      0.7070         1.00
      0.7080         1.00
      0.7090         1.00
      0.7100         1.00
      0.7110         1.00
      0.7120         1.00
      0.7130         1.00
      0.7140         1.00
      0.7150         1.00
      0.7160         1.00
      0.7170         1.00
      0.7180         1.00
      0.7190         1.00
      0.7200         1.00
      0.7210         1.00
      0.7220         1.00
      0.7230         1.00
      0.7240         1.00
      0.7250         1.00
      0.7260         1.00
      0.7270         1.00
      0.7280         1.00
      0.7290         1.00
      0.7300         1.00
      0.7310         1.00
      0.7320         1.00
      0.7330         1.00
      0.7340         1.00
      0.7350         1.00
      0.7360         1.00
      0.7370         1.00
      0.7380         1.00
      0.7390         1.00
      0.7400         1.00
      0.7410         1.00
      0.7420         1.00
      0.7430         1.00
      0.7440         1.00
      0.7450         1.00
      0.7460         1.00
      0.7470         1.00
      0.7480         1.00
      0.7490         1.00
      0.7500         1.00
      0.7510         1.00
      0.7520         1.00
      0.7530         1.00
      0.7540         1.00
      0.7550         1.00
      0.7560         1.00
      0.7570         1.00
      0.7580         1.00
      0.7590         1.00
      0.7600         1.00
      0.7610         1.00
      0.7620         1.00
      0.7630         1.00
      0.7640         1.00
      0.7650         1.00
      0.7660         1.00
      0.7670         1.00
