        Time   Palpation Force
      0.0000         1.00
      0.0010         3.18
      0.0020         4.85
      0.0030         7.03
      0.0040         8.79
      0.0050        10.57
      0.0060        12.37
      0.0070        14.04
      0.0080        15.79
      0.0090        17.57
      0.0100        19.37
      0.0110        21.15
      0.0120        22.82
      0.0130        24.57
      0.0140        26.22
      0.0150        27.86
      0.0160        29.57
      0.0170        31.28
      0.0180        32.99
      0.0190        34.70
      0.0200        34.63
      0.0210        34.62
      0.0220        34.53
      0.0230        34.59
      0.0240        34.54
      0.0250        34.43
      0.0260        34.34
      0.0270        34.44
      0.0280        34.36
      0.0290        34.27
      0.0300        34.26
      0.0310        34.19
      0.0320        34.19
      0.0330        34.11
      0.0340        34.19
      0.0350        34.24
      0.0360        34.19
      0.0370        34.21
      0.0380        34.22
      0.0390        34.27
      0.0400        34.22
      0.0410        34.22
      0.0420        34.13
      0.0430        33.97
      0.0440        33.88
      0.0450        33.88
      0.0460        33.84
      0.0470        33.72
      0.0480        33.57
      0.0490        33.54
      0.0500        33.38
      0.0510        33.23
      0.0520        33.29
      0.0530        33.25
      0.0540        33.18
      0.0550        33.21
      0.0560        33.18
      0.0570        33.06
      0.0580        32.98
      0.0590        32.88
      0.0600        32.87
      0.0610        32.89
      0.0620        32.89
      0.0630        32.83
      0.0640        32.81
      0.0650        32.73
      0.0660        32.64
      0.0670        32.56
      0.0680        32.66
      0.0690        32.53
      0.0700        32.40
      0.0710        32.48
      0.0720        32.27
      0.0730        32.13
      0.0740        31.98
      0.0750        31.80
      0.0760        31.73
      0.0770        31.62
      0.0780        31.50
      0.0790        31.26
      0.0800        31.13
      0.0810        30.95
      0.0820        30.84
      0.0830        30.75
      0.0840        30.60
      0.0850        30.41
      0.0860        30.33
      0.0870        30.24
      0.0880        30.10
      0.0890        30.06
      0.0900        29.99
      0.0910        29.78
      0.0920        29.62
      0.0930        29.59
      0.0940        29.43
      0.0950        29.32
      0.0960        29.14
      0.0970        29.02
      0.0980        28.98
      0.0990        28.82
      0.1000        28.62
      0.1010        28.44
      0.1020        28.22
      0.1030        28.02
      0.1040        27.87
      0.1050        27.84
      0.1060        27.64
      0.1070        27.43
      0.1080        27.23
      0.1090        26.89
      0.1100        26.67
      0.1110        26.46
      0.1120        26.31
      0.1130        26.04
      0.1140        25.85
      0.1150        25.68
      0.1160        25.42
      0.1170        25.16
      0.1180        24.76
      0.1190        24.65
      0.1200        24.42
      0.1210        24.17
      0.1220        23.86
      0.1230        23.63
      0.1240        23.46
      0.1250        23.15
      0.1260        22.83
      0.1270        22.61
      0.1280        22.36
      0.1290        22.15
      0.1300        21.96
      0.1310        21.75
      0.1320        21.55
      0.1330        21.29
      0.1340        21.11
      0.1350        20.78
      0.1360        20.50
      0.1370        20.27
      0.1380        20.11
      0.1390        19.86
      0.1400        19.67
      0.1410        19.48
      0.1420        19.30
      0.1430        19.15
      0.1440        18.84
      0.1450        18.65
      0.1460        18.58
      0.1470        18.36
      0.1480        18.15
      0.1490        18.07
      0.1500        17.87
      0.1510        17.63
      0.1520        17.40
      0.1530        17.32
      0.1540        17.08
      0.1550        16.93
      0.1560        16.85
      0.1570        16.75
      0.1580        16.44
      0.1590        16.18
      0.1600        15.85
      0.1610        15.63
      0.1620        15.43
      0.1630        15.19
      0.1640        15.02
      0.1650        14.75
      0.1660        14.47
      0.1670        14.30
      0.1680        14.00
      0.1690        13.74
      0.1700        13.53
      0.1710        13.31
      0.1720        13.07
      0.1730        12.76
      0.1740        12.54
      0.1750        12.32
      0.1760        12.05
      0.1770        11.77
      0.1780        11.65
      0.1790        11.47
      0.1800        11.35
      0.1810        11.08
      0.1820        10.89
      0.1830        10.71
      0.1840        10.43
      0.1850        10.21
      0.1860         9.96
      0.1870         9.69
      0.1880         9.58
      0.1890         9.33
      0.1900         9.17
      0.1910         9.03
      0.1920         8.89
      0.1930         8.61
      0.1940         8.42
      0.1950         8.16
      0.1960         7.99
      0.1970         7.77
      0.1980         7.58
      0.1990         7.36
      0.2000         7.21
      0.2010         7.05
      0.2020         6.88
      0.2030         6.74
      0.2040         6.71
      0.2050         6.55
      0.2060         6.37
      0.2070         6.26
      0.2080         6.01
      0.2090         5.93
      0.2100         5.59
      0.2110         5.35
      0.2120         5.14
      0.2130         4.98
      0.2140         4.80
      0.2150         4.15
      0.2160         3.96
      0.2170         3.84
      0.2180         3.72
      0.2190         3.53
      0.2200         3.32
      0.2210         3.19
      0.2220         3.00
      0.2230         2.81
      0.2240         2.65
      0.2250         2.05
      0.2260         1.96
      0.2270         1.76
      0.2280         1.15
      0.2290         1.07
      0.2300         1.01
      0.2310         1.00
      0.2320         1.00
      0.2330         1.00
      0.2340         1.00
      0.2350         1.00
      0.2360         1.00
      0.2370         1.00
      0.2380         1.00
      0.2390         1.00
      0.2400         1.00
      0.2410         1.00
      0.2420         1.00
      0.2430         1.00
      0.2440         1.00
      0.2450         1.00
      0.2460         1.00
      0.2470         1.00
      0.2480         1.00
      0.2490         1.00
      0.2500         1.00
      0.2510         1.00
      0.2520         1.00
      0.2530         1.00
      0.2540         1.00
      0.2550         1.00
      0.2560         1.00
      0.2570         1.00
      0.2580         1.00
      0.2590         1.00
      0.2600         1.00
      0.2610         1.00
      0.2620         1.00
      0.2630         1.00
      0.2640         1.00
      0.2650         1.00
      0.2660         1.00
      0.2670         1.00
      0.2680         1.00
      0.2690         1.00
      0.2700         1.00
      0.2710         1.00
      0.2720         1.00
      0.2730         1.00
      0.2740         1.00
      0.2750         1.00
      0.2760         1.00
      0.2770         1.00
      0.2780         1.00
      0.2790         1.00
      0.2800         1.00
      0.2810         1.00
      0.2820         1.00
      0.2830         1.00
      0.2840         1.00
      0.2850         1.00
      0.2860         1.00
      0.2870         1.00
      0.2880         1.00
      0.2890         1.00
      0.2900         1.00
      0.2910         1.00
      0.2920         1.00
      0.2930         1.00
      0.2940         1.00
      0.2950         1.00
      0.2960         1.00
      0.2970         1.00
      0.2980         1.00
      0.2990         1.00
      0.3000         1.00
      0.3010         1.00
      0.3020         1.00
      0.3030         1.00
      0.3040         1.00
      0.3050         1.00
      0.3060         1.00
      0.3070         1.00
      0.3080         1.00
      0.3090         1.00
      0.3100         1.00
      0.3110         1.00
      0.3120         1.00
      0.3130         1.00
      0.3140         1.00
      0.3150         1.00
      0.3160         1.00
      0.3170         1.00
      0.3180         1.00
      0.3190         1.00
      0.3200         1.00
      0.3210         1.00
      0.3220         1.00
      0.3230         1.00
      0.3240         1.00
      0.3250         1.00
      0.3260         1.00
      0.3270         1.00
      0.3280         1.00
      0.3290         1.00
      0.3300         1.00
      0.3310         1.00
      0.3320         1.00
      0.3330         1.00
      0.3340         1.00
      0.3350         1.00
      0.3360         1.00
      0.3370         1.00
      0.3380         1.00
      0.3390         1.00
      0.3400         1.00
      0.3410         1.00
      0.3420         1.00
      0.3430         1.00
      0.3440         1.00
      0.3450         1.00
      0.3460         1.00
      0.3470         1.00
      0.3480         1.00
      0.3490         1.00
      0.3500         1.00
      0.3510         1.00
      0.3520         1.00
      0.3530         1.00
      0.3540         1.00
      0.3550         1.00
      0.3560         1.00
      0.3570         1.00
      0.3580         1.00
      0.3590         1.00
      0.3600         1.00
      0.3610         1.00
      0.3620         1.00
      0.3630         1.00
      0.3640         1.00
      0.3650         1.00
      0.3660         1.00
      0.3670         1.00
      0.3680         1.00
      0.3690         1.00
      0.3700         1.00
      0.3710         1.00
      0.3720         1.00
      0.3730         1.00
      0.3740         1.00
      0.3750         1.00
      0.3760         1.00
      0.3770         1.00
      0.3780         1.00
      0.3790         1.00
      0.3800         1.00
      0.3810         1.00
      0.3820         1.00
      0.3830         1.00
      0.3840         1.00
      0.3850         1.00
      0.3860         1.00
      0.3870         1.00
      0.3880         1.00
      0.3890         1.00
      0.3900         1.00
      0.3910         1.00
      0.3920         1.00
      0.3930         1.00
      0.3940         1.00
      0.3950         1.00
      0.3960         1.00
      0.3970         1.00
      0.3980         1.00
      0.3990         1.00
      0.4000         1.00
      0.4010         1.00
      0.4020         1.00
      0.4030         1.00
      0.4040         1.00
      0.4050         1.00
      0.4060         1.00
      0.4070         1.00
      0.4080         1.00
      0.4090         1.00
      0.4100         1.00
      0.4110         1.00
      0.4120         1.00
      0.4130         1.00
      0.4140         1.00
      0.4150         1.00
      0.4160         1.00
      0.4170         1.00
      0.4180         1.00
      0.4190         1.00
      0.4200         1.00
      0.4210         1.00
      0.4220         1.00
      0.4230         1.00
      0.4240         1.00
      0.4250         1.00
      0.4260         1.00
      0.4270         1.00
      0.4280         1.00
      0.4290         1.00
      0.4300         1.00
      0.4310         1.00
      0.4320         1.00
      0.4330         1.00
      0.4340         1.00
      0.4350         1.00
      0.4360         1.00
      0.4370         1.00
      0.4380         1.00
      0.4390         1.00
      0.4400         1.00
      0.4410         1.00
      0.4420         1.00
      0.4430         1.00
      0.4440         1.00
      0.4450         1.00
      0.4460         1.00
      0.4470         1.00
      0.4480         1.00
      0.4490         1.00
      0.4500         1.00
      0.4510         1.00
      0.4520         1.00
      0.4530         1.00
      0.4540         1.00
      0.4550         1.00
      0.4560         1.00
      0.4570         1.00
      0.4580         1.00
      0.4590         1.00
      0.4600         1.00
      0.4610         1.00
      0.4620         1.00
      0.4630         1.00
      0.4640         1.00
      0.4650         1.00
      0.4660         1.00
      0.4670         1.00
      0.4680         1.00
      0.4690         1.00
      0.4700         1.00
      0.4710         1.00
      0.4720         1.00
      0.4730         1.00
      0.4740         1.00
      0.4750         1.00
      0.4760         1.00
      0.4770         1.00
      0.4780         1.00
      0.4790         1.00
      0.4800         1.00
      0.4810         1.00
      0.4820         1.00
      0.4830         1.00
      0.4840         1.00
      0.4850         1.00
      0.4860         1.00
      0.4870         1.00
      0.4880         1.00
      0.4890         1.00
      0.4900         1.00
      0.4910         1.00
      0.4920         1.00
      0.4930         1.00
      0.4940         1.00
      0.4950         1.00
      0.4960         1.00
      0.4970         1.00
      0.4980         1.00
      0.4990         1.00
      0.5000         1.00
      0.5010         1.00
      0.5020         1.00
      0.5030         1.00
      0.5040         1.00
      0.5050         1.00
      0.5060         1.00
      0.5070         1.00
      0.5080         1.00
      0.5090         1.00
      0.5100         1.00
      0.5110         1.00
      0.5120         1.00
      0.5130         1.00
      0.5140         1.00
      0.5150         1.00
      0.5160         1.00
      0.5170         1.00
      0.5180         1.00
      0.5190         1.00
      0.5200         1.00
      0.5210         1.00
      0.5220         1.00
      0.5230         1.00
      0.5240         1.00
      0.5250         1.00
      0.5260         1.00
      0.5270         1.00
      0.5280         1.00
      0.5290         1.00
      0.5300         1.00
      0.5310         1.00
      0.5320         1.00
      0.5330         1.00
      0.5340         1.00
      0.5350         1.00
      0.5360         1.00
      0.5370         1.00
      0.5380         1.00
      0.5390         1.00
      0.5400         1.00
      0.5410         1.00
      0.5420         1.00
      0.5430         1.00
      0.5440         1.00
      0.5450         1.00
      0.5460         1.00
      0.5470         1.00
      0.5480         1.00
      0.5490         1.00
      0.5500         1.00
      0.5510         1.00
      0.5520         1.00
      0.5530         1.00
      0.5540         1.00
      0.5550         1.00
      0.5560         1.00
      0.5570         1.00
      0.5580         1.00
      0.5590         1.00
      0.5600         1.00
      0.5610         1.00
      0.5620         1.00
      0.5630         1.00
      0.5640         1.00
      0.5650         1.00
      0.5660         1.00
      0.5670         1.00
      0.5680         1.00
      0.5690         1.00
      0.5700         1.00
      0.5710         1.00
      0.5720         1.00
      0.5730         1.00
      0.5740         1.00
      0.5750         1.00
      0.5760         1.00
      0.5770         1.00
      0.5780         1.00
      0.5790         1.00
      0.5800         1.00
      0.5810         1.00
      0.5820         1.00
      0.5830         1.00
      0.5840         1.00
      0.5850         1.00
      0.5860         1.00
      0.5870         1.00
      0.5880         1.00
      0.5890         1.00
      0.5900         1.00
      0.5910         1.00
      0.5920         1.00
      0.5930         1.00
      0.5940         1.00
      0.5950         1.00
      0.5960         1.00
      0.5970         1.00
      0.5980         1.00
      0.5990         1.00
      0.6000         1.00
      0.6010         1.00
      0.6020         1.00
      0.6030         1.00
      0.6040         1.00
      0.6050         1.00
      0.6060         1.00
      0.6070         1.00
      0.6080         1.00
      0.6090         1.00
      0.6100         1.00
      0.6110         1.00
      0.6120         1.00
      0.6130         1.00
      0.6140         1.00
      0.6150         1.00
      0.6160         1.00
      0.6170         1.00
      0.6180         1.00
      0.6190         1.00
      0.6200         1.00
      0.6210         1.00
      0.6220         1.00
      0.6230         1.00
      0.6240         1.00
      0.6250         1.00
      0.6260         1.00
      0.6270         1.00
      0.6280         1.00
      0.6290         1.00
      0.6300         1.00
      0.6310         1.00
      0.6320         1.00
      0.6330         1.00
      0.6340         1.00
      0.6350         1.00
      0.6360         1.00
      0.6370         1.00
      0.6380         1.00
      0.6390         1.00
      0.6400         1.00
      0.6410         1.00
      0.6420         1.00
      0.6430         1.00
      0.6440         1.00
      0.6450         1.00
      0.6460         1.00
      0.6470         1.00
      0.6480         1.00
      0.6490         1.00
      0.6500         1.00
      0.6510         1.00
      0.6520         1.00
      0.6530         1.00
      0.6540         1.00
      0.6550         1.00
      0.6560         1.00
      0.6570         1.00
      0.6580         1.00
      0.6590         1.00
      0.6600         1.00
      0.6610         1.00
      0.6620         1.00
      0.6630         1.00
      0.6640         1.00
      0.6650         1.00
      0.6660         1.00
      0.6670         1.00
      0.6680         1.00
      0.6690         1.00
      0.6700         1.00
      0.6710         1.00
      0.6720         1.00
      0.6730         1.00
      0.6740         1.00
      0.6750         1.00
      0.6760         1.00
      0.6770         1.00
      0.6780         1.00
      0.6790         1.00
      0.6800         1.00
      0.6810         1.00
      0.6820         1.00
      0.6830         1.00
      0.6840         1.00
      0.6850         1.00
      0.6860         1.00
      0.6870         1.00
      0.6880         1.00
      0.6890         1.00
      0.6900         1.00
      0.6910         1.00
      0.6920         1.00
      0.6930         1.00
      0.6940         1.00
      0.6950         1.00
      0.6960         1.00
      0.6970         1.00
      0.6980         1.00
      0.6990         1.00
      0.7000         1.00
      0.7010         1.00
      0.7020         1.00
      0.7030         1.00
      0.7040         1.00
      0.7050         1.00
      0.7060         1.00
      0.7070         1.00
      0.7080         1.00
      0.7090         1.00
      0.7100         1.00
      0.7110         1.00
      0.7120         1.00
      0.7130         1.00
      0.7140         1.00
      0.7150         1.00
      0.7160         1.00
      0.7170         1.00
      0.7180         1.00
      0.7190         1.00
      0.7200         1.00
      0.7210         1.00
      0.7220         1.00
      0.7230         1.00
      0.7240         1.00
      0.7250         1.00
      0.7260         1.00
      0.7270         1.00
      0.7280         1.00
      0.7290         1.00
      0.7300         1.00
      0.7310         1.00
      0.7320         1.00
      0.7330         1.00
      0.7340         1.00
      0.7350         1.00
      0.7360         1.00
      0.7370         1.00
      0.7380         1.00
      0.7390         1.00
      0.7400         1.00
      0.7410         1.00
      0.7420         1.00
      0.7430         1.00
      0.7440         1.00
      0.7450         1.00
      0.7460         1.00
      0.7470         1.00
      0.7480         1.00
      0.7490         1.00
      0.7500         1.00
      0.7510         1.00
      0.7520         1.00
      0.7530         1.00
      0.7540         1.00
      0.7550         1.00
      0.7560         1.00
      0.7570         1.00
      0.7580         1.00
      0.7590         1.00
      0.7600         1.00
      0.7610         1.00
      0.7620         1.00
      0.7630         1.00
      0.7640         1.00
      0.7650         1.00
      0.7660         1.00
      0.7670         1.00
