        Time   Palpation Force
      0.0000         1.00
      0.0010         1.73
      0.0020         2.58
      0.0030         3.38
      0.0040         4.24
      0.0050         5.10
      0.0060         5.99
      0.0070         6.88
      0.0080         7.73
      0.0090         8.62
      0.0100         9.57
      0.0110        10.45
      0.0120        11.33
      0.0130        12.19
      0.0140        13.08
      0.0150        13.95
      0.0160        14.79
      0.0170        15.67
      0.0180        16.53
      0.0190        17.30
      0.0200        17.33
      0.0210        17.29
      0.0220        17.30
      0.0230        17.37
      0.0240        17.36
      0.0250        17.37
      0.0260        17.34
      0.0270        16.85
      0.0280        17.38
      0.0290        17.32
      0.0300        17.22
      0.0310        17.17
      0.0320        17.10
      0.0330        17.15
      0.0340        17.15
      0.0350        17.15
      0.0360        17.15
      0.0370        17.15
      0.0380        17.18
      0.0390        17.26
      0.0400        17.21
      0.0410        17.25
      0.0420        17.23
      0.0430        17.20
      0.0440        17.20
      0.0450        17.21
      0.0460        17.26
      0.0470        17.22
      0.0480        17.28
      0.0490        17.39
      0.0500        17.37
      0.0510        17.41
      0.0520        17.47
      0.0530        17.48
      0.0540        17.44
      0.0550        17.45
      0.0560        17.48
      0.0570        17.47
      0.0580        17.39
      0.0590        17.43
      0.0600        17.48
      0.0610        17.48
      0.0620        17.49
      0.0630        17.53
      0.0640        17.53
      0.0650        17.49
      0.0660        17.48
      0.0670        17.53
      0.0680        17.48
      0.0690        17.48
      0.0700        17.53
      0.0710        17.53
      0.0720        17.55
      0.0730        17.49
      0.0740        17.44
      0.0750        17.40
      0.0760        17.39
      0.0770        17.48
      0.0780        17.58
      0.0790        17.51
      0.0800        17.45
      0.0810        17.47
      0.0820        17.49
      0.0830        17.51
      0.0840        17.55
      0.0850        17.59
      0.0860        17.55
      0.0870        17.48
      0.0880        17.47
      0.0890        17.40
      0.0900        17.37
      0.0910        17.33
      0.0920        17.32
      0.0930        17.23
      0.0940        17.29
      0.0950        17.30
      0.0960        17.32
      0.0970        17.18
      0.0980        17.13
      0.0990        17.18
      0.1000        17.13
      0.1010        17.11
      0.1020        17.06
      0.1030        17.00
      0.1040        17.00
      0.1050        16.90
      0.1060        16.87
      0.1070        16.86
      0.1080        16.84
      0.1090        16.83
      0.1100        16.79
      0.1110        16.76
      0.1120        16.68
      0.1130        16.71
      0.1140        16.72
      0.1150        16.72
      0.1160        16.67
      0.1170        16.67
      0.1180        16.68
      0.1190        16.65
      0.1200        16.75
      0.1210        16.76
      0.1220        16.75
      0.1230        16.65
      0.1240        16.60
      0.1250        16.67
      0.1260        16.68
      0.1270        16.65
      0.1280        16.72
      0.1290        16.70
      0.1300        16.71
      0.1310        16.80
      0.1320        16.93
      0.1330        16.97
      0.1340        16.91
      0.1350        16.87
      0.1360        16.90
      0.1370        16.89
      0.1380        16.87
      0.1390        16.89
      0.1400        16.82
      0.1410        16.80
      0.1420        16.87
      0.1430        16.99
      0.1440        16.98
      0.1450        16.98
      0.1460        17.01
      0.1470        17.12
      0.1480        16.99
      0.1490        17.04
      0.1500        17.05
      0.1510        16.99
      0.1520        16.93
      0.1530        16.90
      0.1540        16.95
      0.1550        16.99
      0.1560        17.00
      0.1570        17.10
      0.1580        17.09
      0.1590        17.05
      0.1600        17.09
      0.1610        17.06
      0.1620        17.01
      0.1630        16.98
      0.1640        16.98
      0.1650        16.95
      0.1660        16.87
      0.1670        16.79
      0.1680        16.83
      0.1690        16.75
      0.1700        16.72
      0.1710        16.62
      0.1720        16.63
      0.1730        16.60
      0.1740        16.57
      0.1750        16.53
      0.1760        16.47
      0.1770        16.36
      0.1780        16.30
      0.1790        16.27
      0.1800        16.21
      0.1810        16.19
      0.1820        16.13
      0.1830        16.03
      0.1840        16.02
      0.1850        15.90
      0.1860        15.91
      0.1870        15.87
      0.1880        15.83
      0.1890        15.83
      0.1900        15.75
      0.1910        15.84
      0.1920        15.76
      0.1930        15.75
      0.1940        15.71
      0.1950        15.67
      0.1960        15.68
      0.1970        15.64
      0.1980        15.64
      0.1990        15.57
      0.2000        15.55
      0.2010        15.41
      0.2020        15.34
      0.2030        15.41
      0.2040        15.34
      0.2050        15.41
      0.2060        15.37
      0.2070        15.32
      0.2080        15.30
      0.2090        15.34
      0.2100        15.38
      0.2110        15.32
      0.2120        15.30
      0.2130        15.33
      0.2140        15.37
      0.2150        15.34
      0.2160        15.34
      0.2170        15.37
      0.2180        15.34
      0.2190        15.41
      0.2200        15.41
      0.2210        15.51
      0.2220        15.55
      0.2230        15.48
      0.2240        15.52
      0.2250        15.48
      0.2260        15.47
      0.2270        15.52
      0.2280        15.49
      0.2290        15.44
      0.2300        15.41
      0.2310        15.34
      0.2320        15.26
      0.2330        15.14
      0.2340        15.04
      0.2350        14.92
      0.2360        14.86
      0.2370        14.75
      0.2380        14.75
      0.2390        14.64
      0.2400        14.65
      0.2410        14.62
      0.2420        14.61
      0.2430        14.52
      0.2440        14.48
      0.2450        14.48
      0.2460        14.34
      0.2470        14.29
      0.2480        14.25
      0.2490        14.25
      0.2500        14.19
      0.2510        14.21
      0.2520        14.21
      0.2530        14.18
      0.2540        14.11
      0.2550        14.13
      0.2560        14.03
      0.2570        13.99
      0.2580        13.85
      0.2590        13.84
      0.2600        13.72
      0.2610        13.61
      0.2620        13.50
      0.2630        13.52
      0.2640        13.42
      0.2650        13.33
      0.2660        13.31
      0.2670        13.23
      0.2680        13.10
      0.2690        13.00
      0.2700        12.92
      0.2710        12.83
      0.2720        12.75
      0.2730        12.71
      0.2740        12.72
      0.2750        12.76
      0.2760        12.77
      0.2770        12.77
      0.2780        12.84
      0.2790        12.77
      0.2800        12.77
      0.2810        12.83
      0.2820        12.84
      0.2830        12.83
      0.2840        12.83
      0.2850        12.85
      0.2860        12.83
      0.2870        12.79
      0.2880        12.85
      0.2890        12.81
      0.2900        12.84
      0.2910        12.91
      0.2920        12.93
      0.2930        12.93
      0.2940        12.87
      0.2950        12.88
      0.2960        12.92
      0.2970        12.88
      0.2980        12.84
      0.2990        12.84
      0.3000        12.81
      0.3010        12.69
      0.3020        12.71
      0.3030        12.71
      0.3040        12.68
      0.3050        12.60
      0.3060        12.60
      0.3070        12.61
      0.3080        12.52
      0.3090        12.45
      0.3100        12.44
      0.3110        12.31
      0.3120        12.27
      0.3130        12.22
      0.3140        12.14
      0.3150        12.04
      0.3160        11.96
      0.3170        11.91
      0.3180        11.83
      0.3190        11.72
      0.3200        11.66
      0.3210        11.62
      0.3220        11.53
      0.3230        11.50
      0.3240        11.38
      0.3250        11.35
      0.3260        11.31
      0.3270        11.20
      0.3280        11.23
      0.3290        11.21
      0.3300        11.09
      0.3310        11.07
      0.3320        11.00
      0.3330        11.00
      0.3340        11.05
      0.3350        11.00
      0.3360        10.88
      0.3370        10.89
      0.3380        10.89
      0.3390        10.96
      0.3400        10.97
      0.3410        10.96
      0.3420        10.90
      0.3430        10.84
      0.3440        10.88
      0.3450        10.85
      0.3460        10.78
      0.3470        10.74
      0.3480        10.67
      0.3490        10.66
      0.3500        10.70
      0.3510        10.71
      0.3520        10.70
      0.3530        10.62
      0.3540        10.60
      0.3550        10.68
      0.3560        10.78
      0.3570        10.71
      0.3580        10.69
      0.3590        10.65
      0.3600        10.56
      0.3610        10.59
      0.3620        10.61
      0.3630        10.58
      0.3640        10.58
      0.3650        10.59
      0.3660        10.61
      0.3670        10.70
      0.3680        10.18
      0.3690        10.70
      0.3700        10.19
      0.3710        10.14
      0.3720        10.14
      0.3730        10.12
      0.3740        10.14
      0.3750        10.02
      0.3760         9.96
      0.3770         9.95
      0.3780        10.47
      0.3790        10.46
      0.3800        10.50
      0.3810        10.50
      0.3820        10.47
      0.3830        10.43
      0.3840        10.40
      0.3850        10.41
      0.3860        10.37
      0.3870        10.24
      0.3880        10.23
      0.3890        10.20
      0.3900        10.14
      0.3910        10.12
      0.3920        10.06
      0.3930        10.10
      0.3940        10.05
      0.3950        10.04
      0.3960        10.06
      0.3970        10.04
      0.3980        10.00
      0.3990         9.89
      0.4000         9.82
      0.4010         9.68
      0.4020         9.60
      0.4030         9.55
      0.4040         9.49
      0.4050         9.36
      0.4060         9.33
      0.4070         9.29
      0.4080         9.25
      0.4090         9.14
      0.4100         9.07
      0.4110         9.02
      0.4120         9.01
      0.4130         8.91
      0.4140         8.80
      0.4150         8.80
      0.4160         8.74
      0.4170         8.68
      0.4180         8.67
      0.4190         8.70
      0.4200         8.63
      0.4210         8.63
      0.4220         8.66
      0.4230         8.63
      0.4240         8.59
      0.4250         8.60
      0.4260         8.53
      0.4270         8.03
      0.4280         8.05
      0.4290         7.97
      0.4300         7.95
      0.4310         7.88
      0.4320         7.80
      0.4330         7.78
      0.4340         7.69
      0.4350         8.14
      0.4360         8.08
      0.4370         8.04
      0.4380         7.94
      0.4390         7.89
      0.4400         7.85
      0.4410         7.83
      0.4420         7.76
      0.4430         7.76
      0.4440         7.76
      0.4450         7.69
      0.4460         7.73
      0.4470         7.71
      0.4480         7.56
      0.4490         7.56
      0.4500         7.63
      0.4510         7.63
      0.4520         7.67
      0.4530         7.67
      0.4540         7.68
      0.4550         7.71
      0.4560         7.73
      0.4570         7.68
      0.4580         7.71
      0.4590         7.71
      0.4600         7.70
      0.4610         7.68
      0.4620         7.68
      0.4630         7.68
      0.4640         7.65
      0.4650         7.62
      0.4660         7.61
      0.4670         7.60
      0.4680         7.62
      0.4690         7.64
      0.4700         7.55
      0.4710         7.49
      0.4720         7.44
      0.4730         7.39
      0.4740         7.36
      0.4750         7.35
      0.4760         7.30
      0.4770         7.30
      0.4780         7.26
      0.4790         7.18
      0.4800         7.18
      0.4810         7.12
      0.4820         7.08
      0.4830         6.96
      0.4840         6.92
      0.4850         6.97
      0.4860         6.87
      0.4870         6.77
      0.4880         6.72
      0.4890         6.62
      0.4900         6.53
      0.4910         6.51
      0.4920         6.47
      0.4930         6.45
      0.4940         6.42
      0.4950         6.40
      0.4960         6.35
      0.4970         6.36
      0.4980         6.31
      0.4990         6.27
      0.5000         6.17
      0.5010         6.19
      0.5020         6.20
      0.5030         6.25
      0.5040         6.24
      0.5050         6.20
      0.5060         6.21
      0.5070         6.23
      0.5080         6.19
      0.5090         6.15
      0.5100         6.19
      0.5110         6.09
      0.5120         6.03
      0.5130         6.01
      0.5140         5.97
      0.5150         5.94
      0.5160         5.93
      0.5170         5.85
      0.5180         5.88
      0.5190         5.82
      0.5200         5.84
      0.5210         5.77
      0.5220         5.70
      0.5230         5.67
      0.5240         5.56
      0.5250         5.48
      0.5260         5.43
      0.5270         5.35
      0.5280         5.32
      0.5290         5.28
      0.5300         5.23
      0.5310         5.20
      0.5320         5.21
      0.5330         5.13
      0.5340         5.08
      0.5350         4.94
      0.5360         4.85
      0.5370         4.85
      0.5380         4.81
      0.5390         4.85
      0.5400         4.77
      0.5410         4.71
      0.5420         4.66
      0.5430         4.64
      0.5440         4.62
      0.5450         4.56
      0.5460         4.58
      0.5470         4.58
      0.5480         4.51
      0.5490         4.51
      0.5500         4.47
      0.5510         4.47
      0.5520         4.41
      0.5530         4.44
      0.5540         4.36
      0.5550         4.33
      0.5560         4.31
      0.5570         4.26
      0.5580         4.20
      0.5590         4.13
      0.5600         4.13
      0.5610         4.18
      0.5620         4.13
      0.5630         4.00
      0.5640         4.00
      0.5650         3.94
      0.5660         3.81
      0.5670         3.75
      0.5680         3.73
      0.5690         3.67
      0.5700         3.66
      0.5710         3.60
      0.5720         3.58
      0.5730         3.46
      0.5740         3.48
      0.5750         3.48
      0.5760         3.45
      0.5770         3.33
      0.5780         3.26
      0.5790         3.22
      0.5800         3.14
      0.5810         2.96
      0.5820         2.94
      0.5830         2.94
      0.5840         2.90
      0.5850         2.90
      0.5860         2.92
      0.5870         2.91
      0.5880         2.92
      0.5890         2.86
      0.5900         2.83
      0.5910         2.77
      0.5920         2.75
      0.5930         2.76
      0.5940         2.67
      0.5950         2.64
      0.5960         2.60
      0.5970         2.56
      0.5980         2.55
      0.5990         2.49
      0.6000         2.49
      0.6010         2.56
      0.6020         2.51
      0.6030         2.44
      0.6040         2.36
      0.6050         2.34
      0.6060         2.26
      0.6070         2.21
      0.6080         2.06
      0.6090         2.07
      0.6100         1.96
      0.6110         1.92
      0.6120         1.84
      0.6130         1.80
      0.6140         1.77
      0.6150         1.75
      0.6160         1.79
      0.6170         1.72
      0.6180         1.73
      0.6190         1.72
      0.6200         1.65
      0.6210         1.07
      0.6220         1.53
      0.6230         1.54
      0.6240         1.57
      0.6250         1.00
      0.6260         1.00
      0.6270         1.02
      0.6280         1.04
      0.6290         1.00
      0.6300         1.45
      0.6310         1.49
      0.6320         1.48
      0.6330         1.42
      0.6340         1.41
      0.6350         1.41
      0.6360         1.00
      0.6370         1.37
      0.6380         1.00
      0.6390         1.00
      0.6400         1.00
      0.6410         1.00
      0.6420         1.00
      0.6430         1.00
      0.6440         1.30
      0.6450         1.37
      0.6460         1.37
      0.6470         1.38
      0.6480         1.00
      0.6490         1.00
      0.6500         1.00
      0.6510         1.00
      0.6520         1.00
      0.6530         1.00
      0.6540         1.00
      0.6550         1.00
      0.6560         1.00
      0.6570         1.00
      0.6580         1.00
      0.6590         1.00
      0.6600         1.00
      0.6610         1.00
      0.6620         1.00
      0.6630         1.00
      0.6640         1.00
      0.6650         1.00
      0.6660         1.00
      0.6670         1.00
      0.6680         1.00
      0.6690         1.00
      0.6700         1.00
      0.6710         1.00
      0.6720         1.00
      0.6730         1.00
      0.6740         1.00
      0.6750         1.00
      0.6760         1.00
      0.6770         1.00
      0.6780         1.00
      0.6790         1.00
      0.6800         1.00
      0.6810         1.00
      0.6820         1.00
      0.6830         1.00
      0.6840         1.00
      0.6850         1.00
      0.6860         1.00
      0.6870         1.00
      0.6880         1.00
      0.6890         1.00
      0.6900         1.00
      0.6910         1.00
      0.6920         1.00
      0.6930         1.00
      0.6940         1.00
      0.6950         1.00
      0.6960         1.00
      0.6970         1.00
      0.6980         1.00
      0.6990         1.00
      0.7000         1.00
      0.7010         1.00
      0.7020         1.00
      0.7030         1.00
      0.7040         1.00
      0.7050         1.00
      0.7060         1.00
      0.7070         1.00
      0.7080         1.00
      0.7090         1.00
      0.7100         1.00
      0.7110         1.00
      0.7120         1.00
      0.7130         1.00
      0.7140         1.00
      0.7150         1.00
      0.7160         1.00
      0.7170         1.00
      0.7180         1.00
      0.7190         1.00
      0.7200         1.00
      0.7210         1.00
      0.7220         1.00
      0.7230         1.00
      0.7240         1.00
      0.7250         1.00
      0.7260         1.00
      0.7270         1.00
      0.7280         1.00
      0.7290         1.00
      0.7300         1.00
      0.7310         1.00
      0.7320         1.00
      0.7330         1.00
      0.7340         1.00
      0.7350         1.00
      0.7360         1.00
      0.7370         1.00
      0.7380         1.00
      0.7390         1.00
      0.7400         1.00
      0.7410         1.00
      0.7420         1.00
      0.7430         1.00
      0.7440         1.00
      0.7450         1.00
      0.7460         1.00
      0.7470         1.00
      0.7480         1.00
      0.7490         1.00
      0.7500         1.00
      0.7510         1.00
      0.7520         1.00
      0.7530         1.00
      0.7540         1.00
      0.7550         1.00
      0.7560         1.00
      0.7570         1.00
      0.7580         1.00
      0.7590         1.00
      0.7600         1.00
      0.7610         1.00
      0.7620         1.00
      0.7630         1.00
      0.7640         1.00
      0.7650         1.00
      0.7660         1.00
      0.7670         1.00
